# Model    WH12
# Gamma1   1.28
# Gamma2   3
# Gammath  1.35
# alpha0   0.0001
# beta0    -4.35
# 
# time [s] 		 h(t)
0.0	0.0
0.000167445034717	-1.14271502472e-35
0.000335247608772	-4.58062530219e-35
0.000503050410803	-1.03137453948e-34
0.000670853473735	-1.83420864457e-34
0.000838656830577	-2.86656614214e-34
0.00100646051354	-4.12844850897e-34
0.00117426455437	-5.61985739691e-34
0.00134206898874	-7.3407946542e-34
0.00150987385006	-9.2912623079e-34
0.0016776791719	-1.14712625659e-33
0.00184548498795	-1.38807978336e-33
0.00201329133208	-1.65198706818e-33
0.00218109823827	-1.93884838912e-33
0.00234890574071	-2.24866404165e-33
0.00251671387374	-2.58143434183e-33
0.00268452267191	-2.9371596231e-33
0.00285233216994	-3.31584023938e-33
0.00302014240279	-3.717476565e-33
0.00318795340563	-4.14206899077e-33
0.00335576521385	-4.58961793082e-33
0.00352357786305	-5.06012381788e-33
0.00369139138905	-5.55358710394e-33
0.00385920582585	-6.07000826159e-33
0.00402702121068	-6.60938778377e-33
0.00419483758131	-7.17172618863e-33
0.00436265497467	-7.75702400896e-33
0.00453047342796	-8.3652818038e-33
0.00469829297873	-8.99650015259e-33
0.00486611366486	-9.65067965425e-33
0.00500003541246	-1.01891876875e-32
0.00503393552457	-1.03278209303e-32
0.00520175859646	-1.10279246302e-32
0.0053695829195	-1.17509914172e-32
0.00553740853308	-1.24970219913e-32
0.00570523547698	-1.32660170613e-32
0.00587306379141	-1.40579773568e-32
0.00604089351706	-1.48729036555e-32
0.00620872469505	-1.5710796736e-32
0.00637655736701	-1.65716574138e-32
0.00654439157507	-1.74554865257e-32
0.00671222736189	-1.83622849271e-32
0.00688006477069	-1.92920535322e-32
0.00704790384523	-2.0244793235e-32
0.0072157446299	-2.12205049879e-32
0.00738358716971	-2.22191897643e-32
0.0075514315083	-2.32408485655e-32
0.00771927769312	-2.42854824204e-32
0.00788712577247	-2.53530923909e-32
0.00805497579414	-2.64436795645e-32
0.00822282780661	-2.75572450791e-32
0.00839068185906	-2.86937900822e-32
0.00855853800141	-2.98533157402e-32
0.00872639628462	-3.10358233069e-32
0.00889425676063	-3.22413140084e-32
0.00906211948215	-3.34697891467e-32
0.00922998450275	-3.47212500543e-32
0.00939785187693	-3.59956980718e-32
0.00956572166027	-3.72931346202e-32
0.00973359390941	-3.86135611175e-32
0.00990146868194	-3.99569790621e-32
0.0100000123723	-4.0756275053e-32
0.0100693460365	-4.132338996e-32
0.0102372260327	-4.27127953577e-32
0.0104051087312	-4.41251968787e-32
0.0105729941941	-4.55605961467e-32
0.0107408824845	-4.70189948632e-32
0.0109087736672	-4.85003947583e-32
0.0110766678078	-5.00047976018e-32
0.0112445649736	-5.153220525e-32
0.011412465232	-5.30826195516e-32
0.0115803686514	-5.46560424505e-32
0.0117482753057	-5.62524759293e-32
0.0119161852681	-5.78719220303e-32
0.0120840986134	-5.95143828439e-32
0.012252015418	-6.11798605282e-32
0.01241993576	-6.28683572806e-32
0.0125878597193	-6.45798753859e-32
0.012755787378	-6.63144171687e-32
0.0129237188201	-6.80719850377e-32
0.0130916541316	-6.98525814644e-32
0.0132595934004	-7.16562090042e-32
0.013427536717	-7.34828702832e-32
0.0135954841742	-7.53325680131e-32
0.0137634358668	-7.7205304975e-32
0.0139313918927	-7.91010840087e-32
0.014099352352	-8.101990805e-32
0.0142673173478	-8.29617800561e-32
0.0144352869857	-8.49267030708e-32
0.0146032613748	-8.69146801963e-32
0.0147712406267	-8.89257146401e-32
0.0149392248567	-9.09598097167e-32
0.015000036398	-9.17018377684e-32
0.0151072141831	-9.30169689327e-32
0.015275208728	-9.50971960083e-32
0.015443208617	-9.72004949147e-32
0.0156112139787	-9.93268698464e-32
0.0157792249453	-1.01476325443e-31
0.0159472416568	-1.03648866302e-31
0.0161152642554	-1.05844497113e-31
0.016283292888	-1.08063222535e-31
0.016451327706	-1.10305046782e-31
0.0166193688663	-1.12569973564e-31
0.0167874165308	-1.14858005928e-31
0.0169554708673	-1.17169146325e-31
0.0171235320493	-1.19503396619e-31
0.0172916002564	-1.2186075894e-31
0.0174596756751	-1.24241235697e-31
0.0176277584984	-1.26644831297e-31
0.0177958489267	-1.29071552736e-31
0.0179639471681	-1.31521410492e-31
0.0181320534386	-1.33994419677e-31
0.018300167963	-1.36490600078e-31
0.0184682909749	-1.39009975498e-31
0.0186364227175	-1.41552572633e-31
0.0188045634438	-1.44118418369e-31
0.0189727134176	-1.46707535749e-31
0.0191408729143	-1.49319939925e-31
0.0193090422212	-1.51955632904e-31
0.0194772216384	-1.54614598844e-31
0.01964541148	-1.57296800037e-31
0.0198136120744	-1.60002175873e-31
0.0199818237649	-1.62730643811e-31
0.0200001595249	-1.63029438497e-31
0.0201500469094	-1.65482105333e-31
0.020318281887	-1.68256455908e-31
0.0204865290957	-1.71053600061e-31
0.0206547889529	-1.73873471094e-31
0.0208230618975	-1.76716053861e-31
0.0209913483923	-1.79581408983e-31
0.0211596489249	-1.82469695562e-31
0.0213279640104	-1.85381189148e-31
0.0214962941933	-1.88316291025e-31
0.0216646400498	-1.91275524879e-31
0.0218330021909	-1.94259516494e-31
0.0220013812648	-1.97268955856e-31
0.0221697779606	-2.00304536439e-31
0.022338193012	-2.03366876049e-31
0.0225066272013	-2.06456418892e-31
0.0226750813641	-2.09573325645e-31
0.0228435563944	-2.12717358902e-31
0.0230120532508	-2.15887774603e-31
0.0231805729632	-2.19083232416e-31
0.0233491166402	-2.22301738876e-31
0.0235176854779	-2.25540637855e-31
0.0236862807701	-2.28796663998e-31
0.0238549039197	-2.32066068659e-31
0.0240235564522	-2.35344829644e-31
0.024192240031	-2.38628946472e-31
0.0243609564761	-2.41914819717e-31
0.024529707785	-2.45199703478e-31
0.0246984961582	-2.48482213414e-31
0.0248673240283	-2.51762864044e-31
0.0250000522083	-2.54341971719e-31
0.0250361940984	-2.55044599715e-31
0.0252051093872	-2.58333278734e-31
0.0253740732784	-2.61638062262e-31
0.0255430895883	-2.64971659334e-31
0.0257121626482	-2.68350374701e-31
0.0258812974066	-2.71793913908e-31
0.0260504995605	-2.75324901696e-31
0.0262197757246	-2.78968083327e-31
0.0263891336532	-2.82749189465e-31
0.0265585825357	-2.86693464289e-31
0.0267281333989	-2.90823872396e-31
0.026897799668	-2.95159026929e-31
0.0270675979674	-2.99710897221e-31
0.0272375452983	-3.0448226754e-31
0.0274076150684	-3.09462892246e-31
0.027577800228	-3.14628761228e-31
0.0277481041284	-3.19939738415e-31
0.0279185291218	-3.2533744891e-31
0.0280890765598	-3.30744039611e-31
0.0282597469234	-3.36061665185e-31
0.0284305400368	-3.41172856737e-31
0.0286014553672	-3.45941902075e-31
0.028772492068	-3.50217340096e-31
0.0289436487854	-3.53835646148e-31
0.0291149242623	-3.56626170298e-31
0.0292863172692	-3.58417277043e-31
0.0294578265851	-3.59043654873e-31
0.0296294509934	-3.58354688063e-31
0.0298011893315	-3.56223735866e-31
0.0299730404886	-3.52558118934e-31
0.0300000312968	-3.51839376407e-31
0.0301450033961	-3.47309573178e-31
0.0303170770049	-3.40484898056e-31
0.0304892602784	-3.32156497545e-31
0.0306615521887	-3.22472499684e-31
0.0308339517091	-3.11666133952e-31
0.0310064578299	-3.00064053932e-31
0.0311790695626	-2.88093314698e-31
0.0313517859399	-2.76286744777e-31
0.0315246060061	-2.65286492503e-31
0.0316975288189	-2.55845577285e-31
0.0318705534476	-2.48827335495e-31
0.0320436789704	-2.4520271185e-31
0.0322169044726	-2.46045411204e-31
0.0323902290547	-2.52524995156e-31
0.0325636518239	-2.65898065755e-31
0.0327371718971	-2.87497739769e-31
0.0329107883988	-3.18721664116e-31
0.033084500462	-3.61018869792e-31
0.0332583072291	-4.15875787675e-31
0.0334322078488	-4.84801770614e-31
0.0336062014796	-5.69314479139e-31
0.0337802872869	-6.70925473016e-31
0.033954464443	-7.91126346199e-31
0.0341287321296	-9.31375712415e-31
0.0343030895356	-1.09308730866e-30
0.0344775358559	-1.27761945021e-30
0.0346520702923	-1.48626600993e-30
0.0348266920547	-1.72024907428e-30
0.0350000010391	-1.97851961137e-30
0.0350013990046	-1.98071119131e-30
0.0351761788813	-2.26869527706e-30
0.0353510255762	-2.58516488665e-30
0.0355259379011	-2.93100589536e-30
0.0357009147026	-3.30702079906e-30
0.0358759548539	-3.7139313222e-30
0.0360510573165	-4.15238244492e-30
0.0362262210491	-4.62294714095e-30
0.0364014450223	-5.12613220136e-30
0.0365767281716	-5.66238453726e-30
0.0367520694629	-6.23209828033e-30
0.0369274679213	-6.83562210262e-30
0.037102922581	-7.47326639187e-30
0.0372784324617	-8.14531040506e-30
0.0374539966402	-8.85200961419e-30
0.0376296141947	-9.59360225435e-30
0.0378052842391	-1.03703158233e-29
0.037981005866	-1.118237267e-29
0.0381567782037	-1.20299955719e-29
0.0383326003979	-1.29134123524e-29
0.0385084715575	-1.38328597295e-29
0.0386843907878	-1.47885868752e-29
0.038860357171	-1.57808581429e-29
0.0390363696648	-1.68099546781e-29
0.0392124271091	-1.7876175925e-29
0.0393885283481	-1.89798413079e-29
0.0395646723388	-2.01212915484e-29
0.0397408582003	-2.1300889117e-29
0.0399170850943	-2.25190172168e-29
0.0400001019215	-2.31062174618e-29
0.0400933521511	-2.37760785312e-29
0.0402696585695	-2.50724948976e-29
0.0404460035101	-2.64087052137e-29
0.0406223861326	-2.77851642642e-29
0.0407988055932	-2.92023409976e-29
0.0409752609663	-3.06607162871e-29
0.0411517513396	-3.2160781894e-29
0.0413282759545	-3.37030402253e-29
0.0415048342606	-3.52880034741e-29
0.0416814258245	-3.69161917916e-29
0.0418580502077	-3.85881311275e-29
0.0420347069048	-4.03043517723e-29
0.0422113954431	-4.2065388678e-29
0.0423881153351	-4.38717806598e-29
0.0425648660853	-4.57240703653e-29
0.0427416472164	-4.76228045892e-29
0.0429184582437	-4.95685344082e-29
0.0430952986864	-5.15618157113e-29
0.0432721680541	-5.36032096702e-29
0.0434490658907	-5.56932838465e-29
0.0436259917331	-5.78326124428e-29
0.0438029451704	-6.00217776559e-29
0.0439799258136	-6.22613699025e-29
0.0441569332802	-6.45519880981e-29
0.0443339672182	-6.68942403113e-29
0.0445110272809	-6.92887435889e-29
0.0446881130807	-7.17361232901e-29
0.0448652242716	-7.42370140442e-29
0.0450000226836	-7.61764436903e-29
0.045042360499	-7.67920586918e-29
0.04521952143	-7.94019083124e-29
0.0453967067397	-8.20672214567e-29
0.0455739161213	-8.47886637352e-29
0.0457511493117	-8.75669076266e-29
0.0459284060438	-9.04026311914e-29
0.046105686015	-9.32965170518e-29
0.0462829889324	-9.62492527308e-29
0.0464603145178	-9.92615305401e-29
0.046637662421	-1.02334045812e-28
0.0468150323399	-1.05467499494e-28
0.0469924239861	-1.08662597546e-28
0.0471698370615	-1.11920050878e-28
0.0473472712717	-1.15240576781e-28
0.0475247263085	-1.18624898842e-28
0.0477022018923	-1.22073748975e-28
0.0478796977387	-1.25587867403e-28
0.0480572135466	-1.29168003469e-28
0.0482347490613	-1.32814917949e-28
0.0484123040062	-1.36529382267e-28
0.0485898780954	-1.40312179211e-28
0.0487674710627	-1.44164104577e-28
0.0489450826621	-1.48085966971e-28
0.0491227126156	-1.52078587426e-28
0.0493003606707	-1.56142800127e-28
0.0494780265697	-1.60279451786e-28
0.0496557100629	-1.64489401587e-28
0.0498334109004	-1.68773520851e-28
0.0500001098395	-1.72860224573e-28
0.0500111288457	-1.73132692326e-28
0.0501888636761	-1.77567810329e-28
0.0503666151543	-1.82079779124e-28
0.0505443830559	-1.86669513468e-28
0.0507221671327	-1.91337937291e-28
0.0508999671714	-1.96085985206e-28
0.0510777829521	-2.00914601155e-28
0.0512556142611	-2.05824739582e-28
0.0514334608518	-2.10817363851e-28
0.0516113225116	-2.15893449648e-28
0.0517891990349	-2.21053984211e-28
0.0519670901908	-2.26299966493e-28
0.0521449957758	-2.31632409722e-28
0.0523229155854	-2.37052341076e-28
0.052500849379	-2.42560801717e-28
0.0526787969395	-2.48158849197e-28
0.0528567580698	-2.53847557892e-28
0.053034732551	-2.59628017797e-28
0.0532127201839	-2.65501335927e-28
0.0533907207452	-2.71468634699e-28
0.0535687340502	-2.77531053343e-28
0.0537467599038	-2.83689744872e-28
0.053924798102	-2.89945875355e-28
0.054102848474	-2.963006233e-28
0.0542809108281	-3.02755176211e-28
0.0544589849665	-3.09310728611e-28
0.0546370707065	-3.15968480727e-28
0.0548151678847	-3.22729636585e-28
0.0549932763277	-3.295954003e-28
0.0550000446681	-3.2985837849e-28
0.0551713958576	-3.36566974412e-28
0.0553495263006	-3.4364555786e-28
0.0555276674969	-3.50832345157e-28
0.0557058192777	-3.58128523886e-28
0.0558839814755	-3.65535273779e-28
0.0560621539423	-3.73053767788e-28
0.0562403365124	-3.80685169632e-28
0.0564185290241	-3.88430635506e-28
0.0565967313323	-3.9629131547e-28
0.0567749432895	-4.0426835358e-28
0.0569531647316	-4.1236288926e-28
0.0571313955203	-4.20576060704e-28
0.0573096355049	-4.28909005511e-28
0.0574878845406	-4.37362864009e-28
0.0576661424816	-4.45938780618e-28
0.057844409196	-4.54637907447e-28
0.0580226845419	-4.6346140535e-28
0.0582009683776	-4.72410445886e-28
0.0583792605675	-4.81486214086e-28
0.0585575609858	-4.90689909382e-28
0.0587358694961	-5.0002274623e-28
0.0589141859734	-5.09485955706e-28
0.0590925102899	-5.19080785083e-28
0.0592708423176	-5.28808498273e-28
0.0594491819352	-5.3867037544e-28
0.0596275290182	-5.48667712209e-28
0.0598058834388	-5.5880181846e-28
0.0599842450765	-5.69074018574e-28
0.0600001196079	-5.69994981399e-28
0.0601626138086	-5.79485648858e-28
0.0603409895198	-5.90038058182e-28
0.0605193720961	-6.00732605684e-28
0.060697761413	-6.11570659459e-28
0.0608761573614	-6.22553597853e-28
0.0610545598354	-6.33682807581e-28
0.0612329687075	-6.44959682841e-28
0.0614113838596	-6.56385626592e-28
0.0615898051738	-6.67962051364e-28
0.0617682325241	-6.79690378622e-28
0.0619466658054	-6.91572042513e-28
0.0621251049155	-7.03608489857e-28
0.0623035497416	-7.15801180641e-28
0.0624820001759	-7.2815159101e-28
0.0626604561191	-7.40661215219e-28
0.0628389174691	-7.53331566502e-28
0.0630173841274	-7.66164179708e-28
0.0631958560025	-7.79160612663e-28
0.0633743329941	-7.92322446654e-28
0.0635528149973	-8.05651287925e-28
0.0637313019167	-8.19148769218e-28
0.0639097936676	-8.32816550958e-28
0.0640882901572	-8.46656319528e-28
0.0642667912907	-8.60669787766e-28
0.0644452969879	-8.74858695647e-28
0.064623807164	-8.89224808352e-28
0.0648023217356	-9.03769915336e-28
0.0649808406217	-9.18495829314e-28
0.0650001209154	-9.20097122884e-28
0.0651593637293	-9.33404383666e-28
0.0653378909766	-9.48497432953e-28
0.0655164222797	-9.63776850731e-28
0.0656949575608	-9.7924452825e-28
0.0658734967445	-9.94902373611e-28
0.0660520397491	-1.01075230932e-27
0.0662305864991	-1.02679627523e-27
0.0664091369166	-1.0430362227e-27
0.0665876909229	-1.05947411887e-27
0.0667662484461	-1.07611194632e-27
0.0669448094068	-1.09295170311e-27
0.0671233737374	-1.10999540483e-27
0.0673019413581	-1.12724508446e-27
0.0674805122011	-1.14470279625e-27
0.0676590861954	-1.16237061588e-27
0.0678376632674	-1.18025064409e-27
0.068016243346	-1.1983450068e-27
0.068194826362	-1.2166558611e-27
0.0683734122471	-1.23518539302e-27
0.0685520009354	-1.25393582453e-27
0.0687305923497	-1.27290941143e-27
0.0689091864192	-1.29210844562e-27
0.0690877830726	-1.31153525955e-27
0.0692663822473	-1.33119222378e-27
0.069444983881	-1.35108175141e-27
0.0696235879024	-1.3712062955e-27
0.0698021942466	-1.39156834797e-27
0.0699808028505	-1.41217044351e-27
0.0700000927123	-1.41440994032e-27
0.07015941365	-1.43301515679e-27
0.0703380265753	-1.45410509928e-27
0.0705166415578	-1.47544292148e-27
0.0706952585377	-1.49703131102e-27
0.0708738774481	-1.51887299031e-27
0.071052498231	-1.54097071794e-27
0.0712311208219	-1.56332728363e-27
0.071409745144	-1.58594550816e-27
0.0715883711294	-1.60882824464e-27
0.0717669987114	-1.63197837807e-27
0.0719456278111	-1.65539882066e-27
0.0721242583519	-1.67909251787e-27
0.0723028902596	-1.7030624479e-27
0.0724815234419	-1.72731161729e-27
0.0726601577402	-1.75184305969e-27
0.0728387928773	-1.77665982519e-27
0.0730174286429	-1.80176501437e-27
0.0731960649798	-1.82716178604e-27
0.0733747017903	-1.85285333957e-27
0.073553339029	-1.8788429269e-27
0.0737319766594	-1.90513385227e-27
0.0739106145708	-1.93172946058e-27
0.0740892527193	-1.95863316474e-27
0.0742678910728	-1.98584843584e-27
0.0744465294945	-2.01337879047e-27
0.0746251678499	-2.0412278114e-27
0.07480380616	-2.0693991696e-27
0.074982444528	-2.09789661777e-27
0.075000129732	-2.10073574941e-27
0.0751610830169	-2.12672397352e-27
0.0753397217013	-2.15588512748e-27
0.0755183606084	-2.18538403531e-27
0.0756969997324	-2.21522471969e-27
0.0758756391286	-2.24541128695e-27
0.0760542788357	-2.2759479153e-27
0.0762329188292	-2.30683884423e-27
0.0764115591112	-2.33808839385e-27
0.0765901997072	-2.36970096015e-27
0.0767688406201	-2.40168101202e-27
0.076947481831	-2.43403308917e-27
0.0771261233509	-2.46676181207e-27
0.0773047651725	-2.49987187508e-27
0.0774834072646	-2.5333680482e-27
0.0776620496519	-2.56725518895e-27
0.0778406923262	-2.60153823248e-27
0.0780193352596	-2.63622219553e-27
0.0781979784583	-2.67131218522e-27
0.0783766219131	-2.70681339695e-27
0.0785552655986	-2.74273111156e-27
0.07873390951	-2.77907071286e-27
0.0789125536295	-2.81583767498e-27
0.0790911979445	-2.85303757395e-27
0.0792698424277	-2.89067608482e-27
0.0794484870679	-2.92875899341e-27
0.0796271318447	-2.96729218749e-27
0.0798057767118	-3.00628166433e-27
0.0799844216326	-3.04573353589e-27
0.0800001423866	-3.04922764374e-27
0.0801630665513	-3.08565403527e-27
0.0803417113984	-3.12604951592e-27
0.0805203561153	-3.16692647652e-27
0.0806990006257	-3.20829156013e-27
0.0808776448457	-3.2501515763e-27
0.0810562886971	-3.29251352169e-27
0.0812349320945	-3.33538459795e-27
0.0814135749543	-3.37877224029e-27
0.0815922171766	-3.42268413494e-27
0.0817708586653	-3.46712824437e-27
0.0819494993298	-3.51211282615e-27
0.082128139078	-3.55764643539e-27
0.0823067778322	-3.6037379296e-27
0.0824854155193	-3.65039644061e-27
0.0826640520658	-3.69763134178e-27
0.0828426874209	-3.7454521963e-27
0.0830213215469	-3.7938686866e-27
0.0831999544331	-3.84289053598e-27
0.0833785860925	-3.89252741914e-27
0.083557216531	-3.94278887935e-27
0.0837358457326	-3.99368425554e-27
0.083914473691	-4.04522266249e-27
0.0840931004115	-4.0974130135e-27
0.084271725901	-4.15026408804e-27
0.0844503501756	-4.20378467838e-27
0.084628973266	-4.25798380669e-27
0.0848075952095	-4.31287098984e-27
0.0849862160472	-4.36845655688e-27
0.0850001484272	-4.37282191705e-27
0.0851648358146	-4.42475197219e-27
0.0853434545236	-4.48177013058e-27
0.0855220721674	-4.53952557178e-27
0.0857006887469	-4.59803457096e-27
0.0858793042839	-4.65731503033e-27
0.0860579187885	-4.71738609956e-27
0.0862365322692	-4.77826753078e-27
0.0864151447364	-4.83997872854e-27
0.0865937562029	-4.90253752308e-27
0.0867723666719	-4.96595870654e-27
0.0869509761485	-5.03025246695e-27
0.0871295846319	-5.09542285283e-27
0.0873081921232	-5.161466466e-27
0.0874867986247	-5.22837162909e-27
0.0876654041401	-5.2961182701e-27
0.0878440086612	-5.36467879238e-27
0.0880226121767	-5.43402018159e-27
0.0882012146603	-5.50410751188e-27
0.0883798160885	-5.57490899152e-27
0.0885584164236	-5.64640250914e-27
0.0887370156294	-5.71858355078e-27
0.0889156136561	-5.79147416313e-27
0.0890942104547	-5.8651324897e-27
0.0892728059667	-5.93966219194e-27
0.0894514001368	-6.0152209525e-27
0.0896299929126	-6.09202709466e-27
0.089808584222	-6.17036326117e-27
0.0899871740071	-6.25057615728e-27
0.090000032411	-6.25643439248e-27
0.090165762204	-6.33307130463e-27
0.090344348766	-6.41830201217e-27
0.0905229336443	-6.50675194766e-27
0.0907015167992	-6.59891106864e-27
0.0908800981933	-6.69524508148e-27
0.0910586777923	-6.79615908801e-27
0.0912372555698	-6.90195662885e-27
0.0914158314947	-7.01279586318e-27
0.0915944055489	-7.12864521454e-27
0.0917729777172	-7.2492412214e-27
0.0919515479917	-7.37405178102e-27
0.0921301163749	-7.5022481979e-27
0.0923086828627	-7.6326895127e-27
0.0924872474618	-7.76392254392e-27
0.0926658101828	-7.89420065626e-27
0.0928443710368	-8.02152378332e-27
0.0930229300384	-8.14370144599e-27
0.0932014872022	-8.25843954224e-27
0.0933800425553	-8.36345056834e-27
0.0935585961218	-8.45658564501e-27
0.0937371479361	-8.53598547929e-27
0.0939156980355	-8.60024603043e-27
0.0940942464503	-8.64859342908e-27
0.0942727932174	-8.68106165177e-27
0.0944513383731	-8.69866550653e-27
0.0946298819573	-8.70356096393e-27
0.0948084240027	-8.69918454929e-27
0.0949869645521	-8.69036365105e-27
0.0950001764945	-8.68969764926e-27
0.0951655036427	-8.68339006005e-27
0.0953440412957	-8.68604996103e-27
0.09552257755	-8.70760483191e-27
0.0957011124324	-8.75871929831e-27
0.0958796459618	-8.8513338592e-27
0.0960581781637	-8.9984824738e-27
