# Model    WH12
# Gamma1   1.28
# Gamma2   2.5
# Gammath  1.35
# alpha0   0.0001
# beta0    -4.35
# 
# time [s] 		 h(t)
0.0	0.0
0.000167445034717	-1.14271502472e-35
0.000335247608772	-4.58062530219e-35
0.000503050410803	-1.03137453948e-34
0.000670853473735	-1.83420864457e-34
0.000838656830577	-2.86656614214e-34
0.00100646051354	-4.12844850897e-34
0.00117426455437	-5.61985739691e-34
0.00134206898874	-7.3407946542e-34
0.00150987385006	-9.2912623079e-34
0.0016776791719	-1.14712625659e-33
0.00184548498795	-1.38807978336e-33
0.00201329133208	-1.65198706818e-33
0.00218109823827	-1.93884838912e-33
0.00234890574071	-2.24866404165e-33
0.00251671387374	-2.58143434183e-33
0.00268452267191	-2.9371596231e-33
0.00285233216994	-3.31584023938e-33
0.00302014240279	-3.717476565e-33
0.00318795340563	-4.14206899077e-33
0.00335576521385	-4.58961793082e-33
0.00352357786305	-5.06012381788e-33
0.00369139138905	-5.55358710394e-33
0.00385920582585	-6.07000826159e-33
0.00402702121068	-6.60938778377e-33
0.00419483758131	-7.17172618863e-33
0.00436265497467	-7.75702400896e-33
0.00453047342796	-8.3652818038e-33
0.00469829297873	-8.99650015259e-33
0.00486611366486	-9.65067965425e-33
0.00500003541246	-1.01891876875e-32
0.00503393552457	-1.03278209303e-32
0.00520175859646	-1.10279246302e-32
0.0053695829195	-1.17509914172e-32
0.00553740853308	-1.24970219913e-32
0.00570523547698	-1.32660170613e-32
0.00587306379141	-1.40579773568e-32
0.00604089351706	-1.48729036555e-32
0.00620872469505	-1.5710796736e-32
0.00637655736701	-1.65716574138e-32
0.00654439157507	-1.74554865257e-32
0.00671222736189	-1.83622849271e-32
0.00688006477069	-1.92920535322e-32
0.00704790384523	-2.0244793235e-32
0.0072157446299	-2.12205049879e-32
0.00738358716971	-2.22191897643e-32
0.0075514315083	-2.32408485655e-32
0.00771927769312	-2.42854824204e-32
0.00788712577247	-2.53530923909e-32
0.00805497579414	-2.64436795645e-32
0.00822282780661	-2.75572450791e-32
0.00839068185906	-2.86937900822e-32
0.00855853800141	-2.98533157402e-32
0.00872639628462	-3.10358233069e-32
0.00889425676063	-3.22413140084e-32
0.00906211948215	-3.34697891467e-32
0.00922998450275	-3.47212500543e-32
0.00939785187693	-3.59956980718e-32
0.00956572166027	-3.72931346202e-32
0.00973359390941	-3.86135611175e-32
0.00990146868194	-3.99569790621e-32
0.0100000123723	-4.0756275053e-32
0.0100693460365	-4.132338996e-32
0.0102372260327	-4.27127953577e-32
0.0104051087312	-4.41251968787e-32
0.0105729941941	-4.55605961467e-32
0.0107408824845	-4.70189948632e-32
0.0109087736672	-4.85003947583e-32
0.0110766678078	-5.00047976018e-32
0.0112445649736	-5.153220525e-32
0.011412465232	-5.30826195516e-32
0.0115803686514	-5.46560424505e-32
0.0117482753057	-5.62524759293e-32
0.0119161852681	-5.78719220303e-32
0.0120840986134	-5.95143828439e-32
0.012252015418	-6.11798605282e-32
0.01241993576	-6.28683572806e-32
0.0125878597193	-6.45798753859e-32
0.012755787378	-6.63144171687e-32
0.0129237188201	-6.80719850377e-32
0.0130916541316	-6.98525814644e-32
0.0132595934004	-7.16562090042e-32
0.013427536717	-7.34828702832e-32
0.0135954841742	-7.53325680131e-32
0.0137634358668	-7.7205304975e-32
0.0139313918927	-7.91010840087e-32
0.014099352352	-8.101990805e-32
0.0142673173478	-8.29617800561e-32
0.0144352869857	-8.49267030708e-32
0.0146032613748	-8.69146801963e-32
0.0147712406267	-8.89257146401e-32
0.0149392248567	-9.09598097167e-32
0.015000036398	-9.17018377684e-32
0.0151072141831	-9.30169689327e-32
0.015275208728	-9.50971960083e-32
0.015443208617	-9.72004949147e-32
0.0156112139787	-9.93268698464e-32
0.0157792249453	-1.01476325443e-31
0.0159472416568	-1.03648866302e-31
0.0161152642554	-1.05844497113e-31
0.016283292888	-1.08063222535e-31
0.016451327706	-1.10305046782e-31
0.0166193688663	-1.12569973564e-31
0.0167874165308	-1.14858005928e-31
0.0169554708673	-1.17169146325e-31
0.0171235320493	-1.19503396619e-31
0.0172916002564	-1.2186075894e-31
0.0174596756751	-1.24241235697e-31
0.0176277584984	-1.26644831297e-31
0.0177958489267	-1.29071552736e-31
0.0179639471681	-1.31521410492e-31
0.0181320534386	-1.33994419677e-31
0.018300167963	-1.36490600078e-31
0.0184682909749	-1.39009975498e-31
0.0186364227175	-1.41552572633e-31
0.0188045634438	-1.44118418369e-31
0.0189727134176	-1.46707535749e-31
0.0191408729143	-1.49319939925e-31
0.0193090422212	-1.51955632904e-31
0.0194772216384	-1.54614598844e-31
0.01964541148	-1.57296800037e-31
0.0198136120744	-1.60002175873e-31
0.0199818237649	-1.62730643811e-31
0.0200001595249	-1.63029438497e-31
0.0201500469094	-1.65482105333e-31
0.020318281887	-1.68256455908e-31
0.0204865290957	-1.71053600061e-31
0.0206547889529	-1.73873471094e-31
0.0208230618975	-1.76716053861e-31
0.0209913483923	-1.79581408983e-31
0.0211596489249	-1.82469695562e-31
0.0213279640104	-1.85381189148e-31
0.0214962941933	-1.88316291025e-31
0.0216646400498	-1.91275524879e-31
0.0218330021909	-1.94259516494e-31
0.0220013812648	-1.97268955856e-31
0.0221697779606	-2.00304536439e-31
0.022338193012	-2.03366876049e-31
0.0225066272013	-2.06456418892e-31
0.0226750813641	-2.09573325645e-31
0.0228435563944	-2.12717358902e-31
0.0230120532508	-2.15887774603e-31
0.0231805729632	-2.19083232416e-31
0.0233491166402	-2.22301738876e-31
0.0235176854779	-2.25540637855e-31
0.0236862807701	-2.28796663998e-31
0.0238549039197	-2.32066068659e-31
0.0240235564522	-2.35344829644e-31
0.024192240031	-2.38628946472e-31
0.0243609564761	-2.41914819717e-31
0.024529707785	-2.45199703478e-31
0.0246984961582	-2.48482213414e-31
0.0248673240283	-2.51762864044e-31
0.0250000522083	-2.54341971719e-31
0.0250361940984	-2.55044599715e-31
0.0252051093872	-2.58333278734e-31
0.0253740732784	-2.61638062262e-31
0.0255430895883	-2.64971659334e-31
0.0257121626482	-2.68350374701e-31
0.0258812974066	-2.71793913908e-31
0.0260504995605	-2.75324901696e-31
0.0262197757246	-2.78968083327e-31
0.0263891336532	-2.82749189465e-31
0.0265585825357	-2.86693464289e-31
0.0267281333989	-2.90823872396e-31
0.026897799668	-2.95159026929e-31
0.0270675979674	-2.99710897221e-31
0.0272375452983	-3.0448226754e-31
0.0274076150684	-3.09462892246e-31
0.027577800228	-3.14628761228e-31
0.0277481041284	-3.19939738415e-31
0.0279185291218	-3.2533744891e-31
0.0280890765598	-3.30744039611e-31
0.0282597469234	-3.36061665185e-31
0.0284305400368	-3.41172856737e-31
0.0286014553717	-3.45941902167e-31
0.0287724921615	-3.5021734225e-31
0.0289436489977	-3.53835650178e-31
0.0291149245814	-3.56626174653e-31
0.0292863176944	-3.58417280079e-31
0.0294578271184	-3.59043654852e-31
0.0296294516375	-3.58354682842e-31
0.0298011900878	-3.56223723214e-31
0.0299730413596	-3.5255809642e-31
0.0300000321861	-3.51839352149e-31
0.0301450043849	-3.47309538452e-31
0.0303170781149	-3.40484849068e-31
0.0304892615123	-3.32156432898e-31
0.0306615535492	-3.22472418576e-31
0.0308339532002	-3.11666036619e-31
0.0310064594544	-3.00063942267e-31
0.031179071325	-2.88093192519e-31
0.0313517878425	-2.76286618112e-31
0.0315246080528	-2.65286370011e-31
0.0316975310126	-2.5584547101e-31
0.0318705557918	-2.48827261146e-31
0.0320436814679	-2.45202689036e-31
0.0322169071265	-2.4604546399e-31
0.0323902318679	-2.5252515236e-31
0.0325636547998	-2.65898361435e-31
0.0327371750388	-2.87498212856e-31
0.0329107917096	-3.18722359358e-31
0.0330845039453	-3.61019837386e-31
0.0332583108878	-4.15877083174e-31
0.0334322116859	-4.84803455323e-31
0.0336062054981	-5.69316619503e-31
0.0337802914901	-6.70928140954e-31
0.0339544688335	-7.91129618011e-31
0.0341287367102	-9.31379669169e-31
0.0343030943096	-1.09309203647e-30
0.0344775408262	-1.27762503675e-30
0.0346520754614	-1.48627254948e-30
0.0348266974259	-1.72025666205e-30
0.0350000079279	-1.9785303959e-30
0.0350014059374	-1.98072205334e-30
0.0351762002114	-2.26873212342e-30
0.0353510753681	-2.58525912129e-30
0.0355260197382	-2.93117466229e-30
0.0357010304816	-3.30727969126e-30
0.0358761065214	-3.71429740408e-30
0.0360512468172	-4.15287414093e-30
0.0362264503741	-4.62358435104e-30
0.0364017161711	-5.12693620556e-30
0.036577043172	-5.66337805118e-30
0.0367524303371	-6.23330534603e-30
0.0369278766718	-6.83706803249e-30
0.0371033812136	-7.47497782826e-30
0.0372789430068	-8.14731541326e-30
0.037454561122	-8.8543375804e-30
0.0376302346495	-9.59628397345e-30
0.0378059626935	-1.03733834291e-29
0.0379817443955	-1.11858599481e-29
0.0381575789008	-1.20339378561e-29
0.0383334653565	-1.29178465109e-29
0.0385094029001	-1.38378243497e-29
0.0386853906593	-1.47941223012e-29
0.0388614277082	-1.57870064098e-29
0.0390375130062	-1.68167595594e-29
0.0392136454197	-1.78836831748e-29
0.039389823834	-1.89880988759e-29
0.0395660472763	-2.01303498215e-29
0.0397423148942	-2.13108007655e-29
0.0399186258072	-2.25298367755e-29
0.0400000958325	-2.31061739749e-29
0.0400949791699	-2.37878629457e-29
0.0402713741779	-2.50853033553e-29
0.0404478099928	-2.64225992561e-29
0.0406242857896	-2.78002079088e-29
0.040800800702	-2.92186005663e-29
0.0409773538153	-3.06782606278e-29
0.0411539442051	-3.21796823055e-29
0.041330571144	-3.37233708127e-29
0.0415072340502	-3.53098407061e-29
0.0416839324844	-3.69396147116e-29
0.0418606659609	-3.8613220976e-29
0.0420374339666	-4.03311924337e-29
0.0422142360227	-4.20940666707e-29
0.0423910716002	-4.39023848531e-29
0.0425679401904	-4.57566922447e-29
0.0427448412867	-4.76575381554e-29
0.0429217743701	-4.96054761503e-29
0.043098738935	-5.16010647117e-29
0.0432757344754	-5.36448677719e-29
0.0434527605139	-5.57374556322e-29
0.0436298166079	-5.78794058076e-29
0.0438069023521	-6.00713036912e-29
0.0439840173578	-6.23137429255e-29
0.0441611612623	-6.46073260008e-29
0.0443383336836	-6.69526639511e-29
0.0445155342415	-6.93503767945e-29
0.0446927625605	-7.18010935451e-29
0.0448700182737	-7.43054520677e-29
0.0450001411838	-7.61781620999e-29
0.0450473010077	-7.68640985168e-29
0.0452246104341	-7.94776876661e-29
0.0454019462421	-8.21468819525e-29
0.0455793081266	-8.48723507673e-29
0.0457566957952	-8.7654769904e-29
0.0459341089511	-9.04948207579e-29
0.0461115472548	-9.3393189186e-29
0.0462890103632	-9.63505657021e-29
0.0464664979327	-9.93676452983e-29
0.0466440095976	-1.02445127071e-28
0.0468215450572	-1.05583715642e-28
0.0469991039859	-1.08784120279e-28
0.0471766860818	-1.12047056059e-28
0.0473542910102	-1.15373243502e-28
0.0475319184319	-1.18763409775e-28
0.0477095680413	-1.22218290382e-28
0.0478872395058	-1.2573862895e-28
0.0480649325181	-1.29325179295e-28
0.0482426467883	-1.32978705784e-28
0.0484203820115	-1.3669998363e-28
0.0485981378767	-1.40489800088e-28
0.048775914124	-1.44348955622e-28
0.0489537104693	-1.48278262906e-28
0.0491315266268	-1.52278547561e-28
0.0493093623481	-1.56350648902e-28
0.0494872173574	-1.60495418219e-28
0.0496650913976	-1.64713719933e-28
0.0498429841854	-1.69006429275e-28
0.0500000789325	-1.72859459927e-28
0.0500208955058	-1.73374435099e-28
0.0501988250713	-1.77818635223e-28
0.0503767726076	-1.82339938189e-28
0.0505547378676	-1.86939263516e-28
0.0507327205825	-1.916175399e-28
0.0509107205105	-1.96375706515e-28
0.0510887373959	-2.01214711876e-28
0.0512667709984	-2.0613551509e-28
0.0514448210656	-2.1113908496e-28
0.0516228873749	-2.16226402616e-28
0.0518009696837	-2.21398459954e-28
0.051979067752	-2.26656261561e-28
0.0521571813368	-2.3200082562e-28
0.0523353101939	-2.37433184268e-28
0.0525134540798	-2.42954384876e-28
0.0526916127809	-2.48565491417e-28
0.052869786076	-2.54267584088e-28
0.0530479737318	-2.60061759002e-28
0.0532261755449	-2.65949129896e-28
0.0534043913032	-2.71930826361e-28
0.053582620808	-2.78007993962e-28
0.0537608638367	-2.84181791629e-28
0.0539391201792	-2.90453392062e-28
0.0541173896475	-2.96823979977e-28
0.0542956720337	-3.03294748729e-28
0.0544739671273	-3.09866898963e-28
0.0546522747345	-3.16541636848e-28
0.0548305946536	-3.23320171179e-28
0.055000009813	-3.29857022102e-28
0.0550089267005	-3.30203711712e-28
0.0551872706982	-3.37193466643e-28
0.0553656264532	-3.44290639959e-28
0.0555439937993	-3.51496431353e-28
0.0557223725325	-3.58812032181e-28
0.0559007624793	-3.66238627438e-28
0.0560791634743	-3.73777394455e-28
0.0562575753535	-3.81429502093e-28
0.0564359979423	-3.89196111421e-28
0.0566144310812	-3.97078376953e-28
0.0567928746156	-4.05077447995e-28
0.0569713283865	-4.1319446971e-28
0.0571497922241	-4.2143058464e-28
0.0573282659727	-4.29786936411e-28
0.0575067494744	-4.38264670686e-28
0.0576852425648	-4.46864937611e-28
0.0578637451018	-4.55588895888e-28
0.058042256944	-4.64437713174e-28
0.0582207779438	-4.73412568406e-28
0.0583993079531	-4.82514653399e-28
0.0585778468358	-4.91745175068e-28
0.0587563944608	-5.0110535614e-28
0.0589349506752	-5.10596434468e-28
0.0591135153485	-5.20219665603e-28
0.0592920883383	-5.29976320934e-28
0.0594706695046	-5.39867687999e-28
0.0596492587177	-5.49895070615e-28
0.0598278558488	-5.60059787011e-28
0.0600000308604	-5.69989826331e-28
0.0600064607714	-5.70363169444e-28
0.06018507336	-5.80806562592e-28
0.0603636934951	-5.91391323103e-28
0.0605423210522	-6.02118817788e-28
0.0607209559058	-6.12990422922e-28
0.060899597933	-6.2400752404e-28
0.0610782470107	-6.35171515046e-28
0.0612569030227	-6.46483798997e-28
0.0614355658514	-6.57945787376e-28
0.0616142353836	-6.69558901389e-28
0.0617929115072	-6.81324572397e-28
0.0619715941079	-6.93244242899e-28
0.0621502830796	-7.05319368741e-28
0.0623289783182	-7.17551420299e-28
0.062507679704	-7.29941882841e-28
0.0626863871315	-7.42492260627e-28
0.0628651004966	-7.55204077675e-28
0.0630438196945	-7.68078879501e-28
0.0632225446228	-7.81118234612e-28
0.0634012751798	-7.94323736153e-28
0.0635800112627	-8.07697002695e-28
0.0637587527685	-8.21239678832e-28
0.0639374996076	-8.34953437336e-28
0.0641162516872	-8.48839977417e-28
0.064295008901	-8.62901023957e-28
0.0644737711505	-8.77138328506e-28
0.0646525383515	-8.91553669179e-28
0.0648313104139	-9.0614884787e-28
0.0650000756169	-9.20093352781e-28
0.0650100872438	-9.20925689163e-28
0.0651888687531	-9.35886039569e-28
0.0653676548495	-9.51031765604e-28
0.0655464454471	-9.66364752956e-28
0.065725240467	-9.81886905894e-28
0.0659040398158	-9.97600141714e-28
0.0660828434085	-1.01350639787e-27
0.0662616511658	-1.02960762384e-27
0.0664404630153	-1.0459057839e-27
0.0666192788768	-1.06240285951e-27
0.0667980986663	-1.07910084408e-27
0.066976922297	-1.09600174817e-27
0.0671557496893	-1.11310759913e-27
0.0673345807704	-1.1304204454e-27
0.0675134154666	-1.14794235394e-27
0.0676922536943	-1.16567541586e-27
0.0678710953796	-1.18362174462e-27
0.0680499404505	-1.20178348455e-27
0.0682287888354	-1.22016280919e-27
0.0684076404609	-1.23876192013e-27
0.0685864952458	-1.25758305682e-27
0.0687653531072	-1.27662849165e-27
0.0689442139689	-1.29590053677e-27
0.0691230777632	-1.31540154221e-27
0.0693019444262	-1.33513390078e-27
0.0694808138834	-1.35510004421e-27
0.0696596860611	-1.37530244385e-27
0.0698385608883	-1.39574361314e-27
0.0700000870817	-1.41440926598e-27
0.0700174383023	-1.416426109e-27
0.0701963182321	-1.43735252367e-27
0.0703752006026	-1.45852549093e-27
0.0705540853425	-1.47994768187e-27
0.0707329723829	-1.50162180428e-27
0.0709118616571	-1.52355060209e-27
0.0710907530945	-1.54573685041e-27
0.0712696466195	-1.56818336232e-27
0.07144854216	-1.59089297711e-27
0.0716274396405	-1.61386857019e-27
0.0718063389807	-1.63711304392e-27
0.0719852401011	-1.66062933406e-27
0.0721641429194	-1.68442040632e-27
0.0723430473333	-1.70848925555e-27
0.0725219531699	-1.73283890274e-27
0.0727008601509	-1.75747238445e-27
0.0728797680767	-1.78239278782e-27
0.0730586768878	-1.80760325503e-27
0.0732375864828	-1.83310696815e-27
0.0734164968238	-1.8589071597e-27
0.0735954078548	-1.88500710779e-27
0.0737743194608	-1.91141013416e-27
0.0739532316045	-1.93811962539e-27
0.0741321442378	-1.96513902262e-27
0.0743110572062	-1.99247181041e-27
0.0744899703779	-2.02012154044e-27
0.0746688837765	-2.04809185269e-27
0.074847797481	-2.07638646095e-27
0.0750000533288	-2.10072341957e-27
0.0750267115515	-2.10500914987e-27
0.0752056260537	-2.13396377311e-27
0.0753845409968	-2.16325424842e-27
0.075563456384	-2.19288456551e-27
0.0757423722796	-2.22285879757e-27
0.0759212887033	-2.25318108495e-27
0.0761002056332	-2.28385563309e-27
0.0762791230811	-2.31488673005e-27
0.076458041059	-2.34627873674e-27
0.0766369595674	-2.37803608704e-27
0.0768158785909	-2.41016328863e-27
0.0769947981412	-2.44266492806e-27
0.0771737181961	-2.47554566364e-27
0.0773526387401	-2.50881023325e-27
0.0775315598007	-2.54246346053e-27
0.0777104813497	-2.57651024074e-27
0.0778894033664	-2.6109555548e-27
0.0780683258607	-2.64580447184e-27
0.0782472488033	-2.68106214468e-27
0.078426172177	-2.71673381524e-27
0.0786050959729	-2.75282482276e-27
0.0787840201728	-2.78934059757e-27
0.0789629447559	-2.82628667209e-27
0.0791418696923	-2.86366867285e-27
0.0793207949729	-2.90149233713e-27
0.0794997205591	-2.93976350314e-27
0.0796786464059	-2.9784881158e-27
0.0798575724673	-3.01767223284e-27
0.0800001766445	-3.04923514246e-27
0.0800364986725	-3.05732202425e-27
0.0802154249589	-3.09744378825e-27
0.0803943512565	-3.13804394909e-27
0.0805732774763	-3.17912907329e-27
0.0807522035443	-3.22070588444e-27
0.0809311293724	-3.2627812764e-27
0.0811100548742	-3.3053623398e-27
0.0812889799559	-3.34845637525e-27
0.0814679045154	-3.39207092459e-27
0.0816468284586	-3.43621379418e-27
0.0818257516892	-3.4808930747e-27
0.0820046741157	-3.52611715293e-27
0.082183595657	-3.57189472283e-27
0.0823625162345	-3.61823477056e-27
0.0825414357881	-3.66514655755e-27
0.0827203542722	-3.71263957342e-27
0.0828992716568	-3.76072347832e-27
0.0830781879396	-3.80940803146e-27
0.0832571031248	-3.85870299879e-27
0.0834360172002	-3.90861806383e-27
0.083614930148	-3.95916274812e-27
0.0837938419621	-4.01034636954e-27
0.0839727526423	-4.06217801651e-27
0.0841516621987	-4.1146665927e-27
0.0843305706557	-4.16782090901e-27
0.0845094780446	-4.22164985437e-27
0.0846883844017	-4.27616262668e-27
0.0848672897591	-4.33136902383e-27
0.0850000368995	-4.37278673339e-27
0.0850461941345	-4.38727976278e-27
0.0852250975265	-4.44390680503e-27
0.0854039999325	-4.50126364335e-27
0.0855829013646	-4.55936548255e-27
0.0857618018364	-4.61822925911e-27
0.085940701355	-4.67787344049e-27
0.0861195999295	-4.73831756454e-27
0.0862984975725	-4.7995814846e-27
0.0864773942888	-4.86168430066e-27
0.0866562900818	-4.92464303859e-27
0.0868351849492	-4.98847112801e-27
0.0870140788914	-5.05317680683e-27
0.0871929719082	-5.11876163754e-27
0.0873718640022	-5.18521932639e-27
0.0875507551658	-5.2525351026e-27
0.0877296453868	-5.32068593385e-27
0.0879085346432	-5.38964182243e-27
0.0880874229066	-5.45936841245e-27
0.0882663101408	-5.52983108653e-27
0.0884451963068	-5.60100059644e-27
0.0886240813572	-5.6728601954e-27
0.0888029652409	-5.74541405205e-27
0.0889818479005	-5.81869655742e-27
0.0891607292781	-5.89278198625e-27
0.0893396093196	-5.96779375686e-27
0.0895184879554	-6.04391240426e-27
0.0896973651239	-6.12138127723e-27
0.0898762407608	-6.20050888621e-27
0.0900000217776	-6.25642912318e-27
0.0900551148143	-6.2816668566e-27
0.0902339872317	-6.36528252103e-27
0.0904128579671	-6.45182540794e-27
0.0905917269804	-6.54178713242e-27
0.0907705942323	-6.63565458875e-27
0.0909494596904	-6.73387680818e-27
0.0911283233207	-6.83682634591e-27
0.0913071850986	-6.944756647e-27
0.0914860450039	-7.05775735819e-27
0.0916649030261	-7.17571013825e-27
0.0918437591628	-7.2982479055e-27
0.0920226134081	-7.42472085847e-27
0.0922014657631	-7.55417278963e-27
0.0923803162363	-7.68533119007e-27
0.0925591648377	-7.81661446383e-27
0.0927380115768	-7.94615916811e-27
0.0929168564665	-8.07186951102e-27
0.093095699528	-8.19149051585e-27
0.093274540783	-8.30270517617e-27
0.0934533802647	-8.40325477155e-27
0.0936322180062	-8.49108016663e-27
0.0938110540371	-8.56448063576e-27
0.0939898883921	-8.62228543194e-27
0.0941687211062	-8.66403210045e-27
0.0943475522182	-8.69014455695e-27
0.0945263817599	-8.70210314778e-27
0.0947052097739	-8.70259845916e-27
0.0948840362961	-8.69566050082e-27
0.0950000939205	-8.68970128892e-27
0.0950628613488	-8.68675519291e-27
0.0952416849698	-8.68284070375e-27
0.0954205071858	-8.69237727804e-27
0.0955993280178	-8.72528559289e-27
0.0957781474915	-8.79285041272e-27
0.0959569656301	-8.90756832881e-27
0.0961357824534	-9.08294048222e-27
