# Model    WH40
# Gamma1   1.3
# Gamma2   2.5
# Gammath  1.35
# alpha0   0.001
# beta0    0.0
# 
# time [s] 		 h(t)
0.0	0.0
0.000167203227042	-1.13909765192e-33
0.000334761393889	-4.56606880749e-33
0.000502319641873	-1.02809219246e-32
0.00066987797398	-1.82836604784e-32
0.000837436393203	-2.85742881401e-32
0.00100499490254	-4.1152808702e-32
0.00117255350498	-5.60192261595e-32
0.00134011219567	-7.31735443533e-32
0.00150767093425	-9.26157657038e-32
0.00167522977496	-1.14345896334e-31
0.00184278872083	-1.38363940899e-31
0.00201034777488	-1.64669904051e-31
0.00217790694012	-1.93263790963e-31
0.0023454662196	-2.24145606769e-31
0.00251302561636	-2.57315356539e-31
0.00268058511384	-2.92773044535e-31
0.00284814469519	-3.30518674465e-31
0.00301570440295	-3.70552254878e-31
0.00318326424018	-4.12873791812e-31
0.00335082420994	-4.5748329118e-31
0.0035183843153	-5.04380759604e-31
0.00368594455932	-5.5356620331e-31
0.00385350494509	-6.05039629102e-31
0.00402106547561	-6.58801043577e-31
0.00418862610354	-7.14850448212e-31
0.00435618687404	-7.73187854376e-31
0.00452374779865	-8.33813270231e-31
0.00469130888047	-8.96726703368e-31
0.00485887012262	-9.61928161458e-31
0.0050001243766	-1.01867038985e-30
0.00502643152822	-1.02941765219e-30
0.00519399310039	-1.0991951835e-30
0.00536155484225	-1.17126076445e-30
0.00552911675683	-1.24561440264e-30
0.00569667880653	-1.32225610017e-30
0.00586424101733	-1.40118586861e-30
0.0060318034104	-1.48240372067e-30
0.00619936598888	-1.56590966408e-30
0.00636692875595	-1.65170370951e-30
0.00653449171475	-1.73978586479e-30
0.00670205486846	-1.8301561416e-30
0.00686961822023	-1.92281454671e-30
0.00703718177324	-2.01776109277e-30
0.00720474553049	-2.11499578853e-30
0.00737230944652	-2.21451863492e-30
0.0075398735635	-2.31632964952e-30
0.00770743789451	-2.42042884491e-30
0.00787500244275	-2.5268162318e-30
0.00804256721145	-2.63549182185e-30
0.00821013220384	-2.7464556258e-30
0.00837769742314	-2.85970765526e-30
0.0085452628726	-2.97524792094e-30
0.00871282855546	-3.09307643546e-30
0.00888039447483	-3.21319321058e-30
0.00904796061852	-3.33559825397e-30
0.00921552696237	-3.46029157153e-30
0.00938309355261	-3.58727318647e-30
0.00955066039262	-3.71654310969e-30
0.00971822748569	-3.84810135558e-30
0.00988579483513	-3.98194793787e-30
0.0100000759162	-4.07454381552e-30
0.0100533624443	-4.11808286725e-30
0.0102209303164	-4.2565061602e-30
0.0103884984549	-4.39721782747e-30
0.0105560668631	-4.54021788449e-30
0.0107236355441	-4.68550634501e-30
0.0108912045013	-4.83308322165e-30
0.0110587736818	-4.98294851336e-30
0.0112263431435	-5.1351022494e-30
0.0113939128918	-5.28954444714e-30
0.0115614829301	-5.44627512128e-30
0.0117290532617	-5.60529428829e-30
0.0118966238901	-5.76660196374e-30
0.0120641948188	-5.93019816225e-30
0.0122317660512	-6.09608289847e-30
0.0123993375908	-6.26425618409e-30
0.012566909441	-6.43471802984e-30
0.0127344816051	-6.60746844827e-30
0.0129020540866	-6.7825074539e-30
0.0130696268345	-6.9598350475e-30
0.0132371999036	-7.13945127552e-30
0.0134047733008	-7.32135617842e-30
0.0135723470299	-7.5055498009e-30
0.0137399210943	-7.69203219073e-30
0.0139074954978	-7.88080338334e-30
0.014075070244	-8.0718633895e-30
0.0142426453365	-8.26521217747e-30
0.014410220779	-8.46084966997e-30
0.0145777965752	-8.658775739e-30
0.0147453727286	-8.85899022744e-30
0.0149129492427	-9.06149299495e-30
0.0150000891739	-9.16769873401e-30
0.0150805261117	-9.26628396835e-30
0.0152481033008	-9.47336321283e-30
0.015415680862	-9.68273105427e-30
0.0155832587991	-9.89438806649e-30
0.0157508371158	-1.01083350881e-29
0.0159184158159	-1.03245731447e-29
0.0160859949032	-1.05431032705e-29
0.0162535743815	-1.07639262276e-29
0.0164211542546	-1.09870421301e-29
0.0165887345263	-1.12124501385e-29
0.0167563152005	-1.14401480443e-29
0.0169238962811	-1.16701321711e-29
0.0170914777718	-1.19023974533e-29
0.0172590596765	-1.21369379675e-29
0.0174266419621	-1.23737477916e-29
0.0175942246491	-1.26128224395e-29
0.0177618077621	-1.28541605926e-29
0.0179293913052	-1.30977659272e-29
0.0180969752823	-1.33436488056e-29
0.0182645596975	-1.35918274315e-29
0.0184321445548	-1.38423279124e-29
0.0185997298581	-1.40951828078e-29
0.0187673156117	-1.4350427892e-29
0.0189349018194	-1.46080968163e-29
0.0191024884856	-1.48682139484e-29
0.0192700756143	-1.51307857275e-29
0.0194376632095	-1.53957915456e-29
0.0196052512756	-1.56631754138e-29
0.019772839796	-1.59328400767e-29
0.019940428759	-1.62046453647e-29
0.0200000905463	-1.6301891855e-29
0.0201080182055	-1.6478412782e-29
0.0202756081401	-1.67539376911e-29
0.020443198567	-1.70310101862e-29
0.0206107894906	-1.73094449003e-29
0.0207783809152	-1.75891183101e-29
0.0209459728453	-1.78700114629e-29
0.021113565285	-1.81522538607e-29
0.021281158239	-1.84361633624e-29
0.0214487517115	-1.87222755085e-29
0.021616345707	-1.90113551317e-29
0.0217839402298	-1.93043831094e-29
0.0219515352842	-1.96025117638e-29
0.0221191308749	-1.99069843606e-29
0.0222867269889	-2.02190166814e-29
0.0224543236085	-2.05396423923e-29
0.0226219207782	-2.08695281575e-29
0.0227895185026	-2.12087692408e-29
0.0229571167865	-2.15566815101e-29
0.0231247156346	-2.19116099179e-29
0.0232923150515	-2.22707776003e-29
0.023459915042	-2.2630201633e-29
0.0236275156109	-2.29847023152e-29
0.0237951167628	-2.33280304972e-29
0.0239627185026	-2.36531334852e-29
0.024130320835	-2.39525723854e-29
0.0242979237648	-2.42190944973e-29
0.0244655272967	-2.44463517027e-29
0.0246331314356	-2.46297425251e-29
0.0248007361863	-2.4767340231e-29
0.0249683415265	-2.48608547107e-29
0.0250000189998	-2.48740051776e-29
0.0251359474585	-2.49165620066e-29
0.0253035540172	-2.4946123544e-29
0.0254711612076	-2.49672090191e-29
0.025638769035	-2.50038330511e-29
0.0258063775045	-2.50863171345e-29
0.0259739866211	-2.52507963563e-29
0.0261415963902	-2.5538203958e-29
0.0263092068167	-2.5992687827e-29
0.026476817906	-2.66594389801e-29
0.0266444296633	-2.75819442174e-29
0.0268120420939	-2.8798710487e-29
0.0269796552029	-3.0339546602e-29
0.0271472689957	-3.22215268781e-29
0.0273148834774	-3.44447978311e-29
0.0274824986535	-3.69884231764e-29
0.0276501145293	-3.98064894369e-29
0.0278177310607	-4.28247147404e-29
0.0279853482957	-4.59378154437e-29
0.0281529662471	-4.90078803749e-29
0.0283205849207	-5.18639967185e-29
0.0284882043223	-5.43033435087e-29
0.0286558244575	-5.60939345296e-29
0.028823445332	-5.69791459674e-29
0.0289910669516	-5.66841078502e-29
0.0291586893221	-5.49239752656e-29
0.0293263124493	-5.14140261844e-29
0.0294939363391	-4.58814614086e-29
0.0296615609974	-3.80787116845e-29
0.0298291864301	-2.77979886229e-29
0.0299968126432	-1.48867555826e-29
0.0300001651755	-1.46010051984e-29
0.0301644396426	7.36258380331e-31
0.0303320674345	1.9064918917e-29
0.0304996960249	3.99898662464e-29
0.0306673253928	6.32834709987e-29
0.030834955542	8.85860268055e-29
0.0310025865084	1.15393609564e-28
0.0311702182983	1.43048004458e-28
0.0313378509181	1.70729062245e-28
0.0315054843742	1.97449773804e-28
0.0316731186731	2.22054282802e-28
0.0318407538213	2.43218980288e-28
0.0320083898253	2.59456738089e-28
0.0321760266917	2.69124250513e-28
0.0323436644271	2.70432367788e-28
0.0325113030382	2.61459225873e-28
0.0326789425318	2.40165895638e-28
0.0328465829144	2.04414213891e-28
0.033014224193	1.51986399666e-28
0.0331818663741	8.06060180846e-29
0.0333495094647	-1.20401751588e-29
0.033517153472	-1.28279989056e-28
0.033684798386	-2.70433628585e-28
0.033852444191	-4.40792082577e-28
0.0340200909339	-6.41596517242e-28
0.0341877386218	-8.75019005694e-28
0.0343553872623	-1.1431450415e-27
0.0345230368625	-1.44795807693e-27
0.03469068743	-1.79132633211e-27
0.0348583389722	-2.17499203895e-27
0.0350000052907	-2.53179462094e-27
0.0350259914967	-2.60056322267e-27
0.035193645011	-3.06950805585e-27
0.0353612995229	-3.58315174412e-27
0.0355289550402	-4.14267586492e-27
0.0356966115706	-4.74912001701e-27
0.0358642691219	-5.40338556992e-27
0.036031927702	-6.10624132073e-27
0.0361995873189	-6.85833077003e-27
0.0363672479803	-7.66018076301e-27
0.0365349096945	-8.51221119844e-27
0.0367025724696	-9.41474551844e-27
0.0368702362957	-1.03680216608e-26
0.0370379011609	-1.13722033197e-26
0.037205567112	-1.24273912192e-26
0.0373732341573	-1.35336339214e-26
0.0375409023056	-1.46909383243e-26
0.0377085715655	-1.58992795606e-26
0.0378762419455	-1.71586101023e-26
0.0380439134545	-1.84688679561e-26
0.0382115861011	-1.98299840178e-26
0.0383792598942	-2.12418883493e-26
0.0385469348427	-2.27045155483e-26
0.0387146109557	-2.42178090318e-26
0.0388822882421	-2.57817245121e-26
0.039049966711	-2.7396232435e-26
0.0392176463719	-2.90613197477e-26
0.0393853272339	-3.07769907957e-26
0.0395530093063	-3.25432676356e-26
0.0397206925987	-3.43601898029e-26
0.0398883771207	-3.6227813585e-26
0.0400000556992	-3.74998140512e-26
0.0400560628819	-3.81462109687e-26
0.0402237498613	-4.01154681228e-26
0.0403914380743	-4.21356841719e-26
0.0405591275563	-4.42069694517e-26
0.0407268183173	-4.63294436133e-26
0.0408945103677	-4.85032340566e-26
0.0410622037176	-5.07284743056e-26
0.0412298983773	-5.30053024633e-26
0.0413975943574	-5.53338598254e-26
0.0415652916683	-5.77142896245e-26
0.0417329903207	-6.01467359725e-26
0.0419006903255	-6.26313429464e-26
0.0420683916933	-6.51682538479e-26
0.0422360944353	-6.77576106128e-26
0.0424037985625	-7.03995534251e-26
0.0425715040861	-7.30942204074e-26
0.0427392110173	-7.58417475024e-26
0.0429069193673	-7.86422683859e-26
0.0430746291476	-8.14959145538e-26
0.0432423403699	-8.44028154521e-26
0.0434100530458	-8.73630985925e-26
0.0435777671874	-9.03768898428e-26
0.0437454827512	-9.34443132702e-26
0.0439131998039	-9.65654924912e-26
0.0440809183585	-9.97405498806e-26
0.0442486384276	-1.02969607015e-25
0.0444163600237	-1.06252785296e-25
0.0445840831594	-1.09590205589e-25
0.0447518078475	-1.12981989107e-25
0.0449195341009	-1.16428256885e-25
0.0450000432623	-1.18101853959e-25
0.0450872619326	-1.19929130521e-25
0.0452549913558	-1.23484731803e-25
0.0454227223837	-1.27095183015e-25
0.0455904550299	-1.30760607203e-25
0.045758189308	-1.34481127804e-25
0.0459259252316	-1.38256869033e-25
0.0460936628147	-1.42087955678e-25
0.0462614020714	-1.45974513129e-25
0.0464291430156	-1.49916667544e-25
0.0465968856618	-1.53914545557e-25
0.0467646300243	-1.57968274411e-25
0.046932376118	-1.62077982009e-25
0.0471001239575	-1.66243796857e-25
0.0472678735233	-1.70465847448e-25
0.047435624844	-1.74744263353e-25
0.0476033779562	-1.79079174528e-25
0.0477711328756	-1.83470711422e-25
0.047938889618	-1.8791900468e-25
0.0481066481994	-1.92424185425e-25
0.0482744086358	-1.96986385183e-25
0.0484421709434	-2.01605735762e-25
0.0486099351388	-2.06282369449e-25
0.0487777012385	-2.11016418843e-25
0.0489454692596	-2.15808017014e-25
0.049113239219	-2.20657297428e-25
0.0492810111341	-2.25564393833e-25
0.0494487850223	-2.30529440568e-25
0.0496165609013	-2.35552572255e-25
0.049784338789	-2.40633924211e-25
0.0499521187035	-2.45773632024e-25
0.0500001041343	-2.47254339097e-25
0.050119900663	-2.50971831971e-25
0.050287684686	-2.56228660524e-25
0.0504554707914	-2.61544254942e-25
0.0506232589984	-2.66918752942e-25
0.050791049326	-2.72352292761e-25
0.050958841768	-2.77845012704e-25
0.0511266363401	-2.83397052262e-25
0.0512944330921	-2.89008551308e-25
0.0514622320446	-2.94679650479e-25
0.0516300332182	-3.00410490536e-25
0.0517978366339	-3.06201212991e-25
0.0519656423128	-3.12051960058e-25
0.0521334502761	-3.17962874323e-25
0.0523012605454	-3.23934099052e-25
0.0524690731428	-3.29965778304e-25
0.0526368880906	-3.3605805661e-25
0.0528047054113	-3.42211079279e-25
0.0529725251279	-3.48424992299e-25
0.0531403472634	-3.54699942254e-25
0.0533081718413	-3.61036076577e-25
0.0534759988853	-3.67433543215e-25
0.0536438284197	-3.73892490884e-25
0.0538116604689	-3.80413069261e-25
0.0539794950577	-3.86995428318e-25
0.0541473322111	-3.93639718918e-25
0.0543151719547	-4.00346092485e-25
0.0544830143142	-4.07114701436e-25
0.054650859316	-4.13945698658e-25
0.0548187069582	-4.20839237239e-25
0.0549865572694	-4.27795471723e-25
0.0550001532635	-4.28361676302e-25
0.0551544103042	-4.34814557623e-25
0.0553222660902	-4.41896650743e-25
0.0554901246558	-4.49041907966e-25
0.0556579860298	-4.56250486832e-25
0.0558258502414	-4.63522545782e-25
0.0559937173202	-4.70858244111e-25
0.0561615872961	-4.78257742193e-25
0.0563294601995	-4.85721201176e-25
0.0564973360613	-4.93248782975e-25
0.0566652149129	-5.00840650785e-25
0.0568330967862	-5.0849696848e-25
0.0570009817139	-5.16217900994e-25
0.0571688697286	-5.24003614142e-25
0.0573367608637	-5.31854274422e-25
0.0575046551531	-5.39770049492e-25
0.0576725526314	-5.47751107797e-25
0.0578404533337	-5.55797618743e-25
0.0580083572956	-5.63909752618e-25
0.058176264553	-5.7208768058e-25
0.0583441751426	-5.80331574862e-25
0.0585120891021	-5.88641608564e-25
0.0586800064697	-5.9701795614e-25
0.0588479272411	-6.05460792057e-25
0.0590158514859	-6.13970293394e-25
0.0591837792566	-6.22546638194e-25
0.0593517105941	-6.31190005492e-25
0.05951964554	-6.39900575378e-25
0.0596875841367	-6.48678529585e-25
0.059855526427	-6.57524051121e-25
0.0600001277311	-6.65194318017e-25
0.0600234724541	-6.66437323972e-25
0.0601914222628	-6.75418534049e-25
0.0603593758985	-6.84467868049e-25
0.0605273334072	-6.93585514339e-25
0.0606952948357	-7.02771662339e-25
0.0608632602315	-7.12026502827e-25
0.0610312296435	-7.21350227683e-25
0.0611992031215	-7.30743030101e-25
0.0613671807158	-7.402051041e-25
0.0615351624778	-7.49736645042e-25
0.0617031484597	-7.59337849072e-25
0.0618711387152	-7.69008913492e-25
0.0620391332988	-7.78750036494e-25
0.0622071322658	-7.88561417142e-25
0.0623751356726	-7.98443255665e-25
0.0625431435771	-8.08395753254e-25
0.0627111560384	-8.18419112162e-25
0.0628791731029	-8.28513535725e-25
0.063047194804	-8.3867922842e-25
0.0632152212457	-8.48916398018e-25
0.0633832524919	-8.59225253064e-25
0.0635512886084	-8.69606004816e-25
0.0637193296618	-8.80058867114e-25
0.0638873757196	-8.90584056927e-25
0.0640554268515	-9.01181795153e-25
0.0642234831287	-9.11852306403e-25
0.0643915446238	-9.22595820114e-25
0.0645596114106	-9.33412570381e-25
0.0647276835648	-9.44302796535e-25
0.064895761164	-9.55266743171e-25
0.0650001401287	-9.62112568588e-25
0.0650638442878	-9.66304659846e-25
0.0652319330168	-9.77416801282e-25
0.0654000274336	-9.8860342621e-25
0.0655681276234	-9.99864796758e-25
0.0657362336733	-1.01120117835e-24
0.0659043456718	-1.02261283538e-24
0.0660724637095	-1.03410003334e-24
0.0662405878797	-1.04566303385e-24
0.0664087182782	-1.05730209484e-24
0.0665768550024	-1.06901746736e-24
0.0667449981522	-1.08080939012e-24
0.0669131478307	-1.09267809591e-24
0.0670813041434	-1.1046237983e-24
0.0672494671454	-1.11664669918e-24
0.0674176369974	-1.12874698287e-24
0.067585813816	-1.14092481833e-24
0.0677539977183	-1.153180358e-24
0.0679221888238	-1.16551373552e-24
0.0680903872554	-1.17792507307e-24
0.0682585931398	-1.19041448182e-24
0.0684268066074	-1.20298206325e-24
0.068595027791	-1.21562791828e-24
0.0687632568278	-1.22835215081e-24
0.0689314938596	-1.24115487497e-24
0.0690997390317	-1.25403622114e-24
0.069267992493	-1.26699634934e-24
0.0694362543975	-1.28003545142e-24
0.0696045249044	-1.29315376554e-24
0.0697728041766	-1.30635158282e-24
0.069941092382	-1.31962926099e-24
0.0700001636923	-1.32430873794e-24
0.0701093896944	-1.33298722748e-24
0.0702776962932	-1.34642599299e-24
0.0704460123625	-1.35994615814e-24
0.0706143380923	-1.37354841976e-24
0.0707826736799	-1.38723357811e-24
0.0709510193287	-1.40100254245e-24
0.0711193752479	-1.41485633257e-24
0.0712877416549	-1.42879608297e-24
0.0714561187748	-1.44282303898e-24
0.0716245067897	-1.45693855967e-24
0.071792905984	-1.4711441171e-24
0.0719613166132	-1.48544128657e-24
0.0721297389355	-1.49983174568e-24
0.0722981732177	-1.5143172628e-24
0.0724666197381	-1.52889969407e-24
0.0726350787854	-1.54358097101e-24
0.0728035506581	-1.5583630954e-24
0.0729720356667	-1.57324812212e-24
0.0731405341356	-1.58823815788e-24
0.0733090464006	-1.60333534213e-24
0.0734775728108	-1.61854184359e-24
0.0736461137316	-1.63385984831e-24
0.0738146695433	-1.6492915502e-24
0.073983240641	-1.66483914276e-24
0.0741518274387	-1.68050481483e-24
0.0743204303694	-1.69629073805e-24
0.0744890498833	-1.71219906876e-24
0.0746576864526	-1.72823194096e-24
0.074826340573	-1.74439146369e-24
0.0749950127616	-1.76067972067e-24
0.075000073212	-1.76117037877e-24
0.0751637035608	-1.77709876737e-24
0.0753324135423	-1.79365063595e-24
0.0755011433046	-1.81033733626e-24
0.0756698934765	-1.82716085353e-24
0.0758386647227	-1.84412316032e-24
0.0760074577353	-1.86122621343e-24
0.0761762732081	-1.87847195791e-24
0.0763451119698	-1.89586234042e-24
0.0765139748439	-1.91339930462e-24
0.0766828627002	-1.93108480266e-24
0.0768517764646	-1.94892079242e-24
0.0770207171179	-1.96690925002e-24
0.0771896857008	-1.98505216886e-24
0.0773586833257	-2.00335156764e-24
0.0775277111755	-2.02180949107e-24
0.0776967705126	-2.04042801477e-24
0.0778658626919	-2.05920925041e-24
0.0780349891619	-2.07815534829e-24
0.0782041514785	-2.09726849858e-24
0.078373351319	-2.11655093905e-24
0.0785425904883	-2.13600495498e-24
0.0787118709396	-2.1556328841e-24
0.0788811947897	-2.17543711955e-24
0.0790505643352	-2.19542011672e-24
0.0792199820819	-2.21558439211e-24
0.079389450765	-2.23593253428e-24
0.0795589733809	-2.25646720179e-24
0.0797285532298	-2.27719113292e-24
0.0798981939495	-2.29810715059e-24
0.0800000092581	-2.31075016855e-24
0.080067899572	-2.31921816443e-24
0.0802376745894	-2.34052718619e-24
0.0804075240174	-2.36203732795e-24
0.080577453497	-2.3837518206e-24
0.0807474693672	-2.40567401964e-24
0.0809175788905	-2.42780742771e-24
0.0810877903869	-2.45015571661e-24
0.0812581134242	-2.47272274918e-24
0.0814285591339	-2.49551262552e-24
0.0815991405948	-2.51852973473e-24
0.0817698733204	-2.54177883054e-24
0.0819407759707	-2.56526513638e-24
0.0821118712813	-2.58899449652e-24
0.0822831874492	-2.61297359421e-24
0.08245476013	-2.63721027268e-24
0.08262662236	-2.66171215152e-24
0.0827987124522	-2.68647330238e-24
0.0829710181161	-2.7114946608e-24
0.0831435416961	-2.73677924824e-24
0.083316280638	-2.76232938999e-24
0.0834892270142	-2.78814663979e-24
0.0836623682436	-2.8142318793e-24
0.0838356890557	-2.84058563206e-24
0.0840091736714	-2.86720841001e-24
0.0841828069733	-2.89410094693e-24
0.0843565757677	-2.92126444295e-24
0.0845304692717	-2.94870070456e-24
0.0847044785298	-2.97641211665e-24
0.0848785961759	-3.00440166584e-24
0.0850000169975	-3.02407675807e-24
0.0850528161259	-3.03267294336e-24
0.085227133339	-3.06123015547e-24
0.085401543621	-3.09007812716e-24
0.085576043394	-3.11922230085e-24
0.0857506107415	-3.14866552594e-24
0.0859251887086	-3.17840506523e-24
0.0860997740557	-3.20844762063e-24
0.0862743673004	-3.23880105486e-24
0.0864489689461	-3.26947374047e-24
0.0866235797888	-3.30047460062e-24
0.0867982009678	-3.33181311275e-24
0.0869728335654	-3.36349922787e-24
0.0871474783761	-3.3955433441e-24
0.0873221360468	-3.42795635447e-24
0.0874968071157	-3.4607496996e-24
0.0876714920624	-3.49393545405e-24
0.0878461913516	-3.52752643551e-24
0.088020905401	-3.56153632483e-24
0.0881956345774	-3.59597981756e-24
0.0883703791935	-3.63087279677e-24
0.0885451395277	-3.66623251059e-24
0.0887199158433	-3.70207774973e-24
0.0888947083846	-3.73842900508e-24
0.0890695173864	-3.77530857835e-24
0.0892443430662	-3.81274063348e-24
0.0894191856285	-3.8507511754e-24
0.0895940452773	-3.88936791378e-24
0.0897689222076	-3.92862001279e-24
0.089943816602	-3.96853770296e-24
0.0900001363436	-3.98153792999e-24
0.0901187286411	-4.00915174682e-24
0.0902936585026	-4.05049276777e-24
0.0904686063029	-4.09259043033e-24
0.0906435722497	-4.13547254059e-24
0.0908185564971	-4.17916403337e-24
0.0909935591915	-4.22368596006e-24
0.0911685804751	-4.26905450488e-24
0.0913436204918	-4.3152801178e-24
0.0915186793919	-4.36236683655e-24
0.0916937573238	-4.4103119028e-24
0.0918688544294	-4.45910576438e-24
0.0920439708439	-4.50873255767e-24
0.0922191066965	-4.5591711662e-24
0.0923942621107	-4.61039693488e-24
0.0925694372079	-4.66238408306e-24
0.0927446321106	-4.71510888787e-24
0.0929198469345	-4.76855359833e-24
0.0930950817956	-4.82271110177e-24
