# Model    WH40
# Gamma1   1.3
# Gamma2   3
# Gammath  1.5
# alpha0   0.0001
# beta0    -4.35
# 
# time [s] 		 h(t)
0.0	0.0
0.000167203227042	-1.13909765192e-35
0.000334761393889	-4.56606880749e-35
0.000502319641873	-1.02809219246e-34
0.00066987797398	-1.82836604785e-34
0.000837436393203	-2.85742881401e-34
0.00100499490254	-4.1152808702e-34
0.00117255350498	-5.60192261595e-34
0.00134011219567	-7.31735443533e-34
0.00150767093425	-9.26157657038e-34
0.00167522977496	-1.14345896334e-33
0.00184278872083	-1.38363940899e-33
0.00201034777487	-1.64669904051e-33
0.00217790694012	-1.93263790963e-33
0.0023454662196	-2.24145606769e-33
0.00251302561635	-2.57315356539e-33
0.00268058511378	-2.92773044535e-33
0.00284814469513	-3.30518674465e-33
0.00301570440289	-3.70552254878e-33
0.00318326424012	-4.12873791808e-33
0.00335082420988	-4.57483291184e-33
0.00351838431523	-5.04380759604e-33
0.00368594455925	-5.5356620331e-33
0.00385350494502	-6.05039629006e-33
0.00402106547554	-6.58801043577e-33
0.00418862610341	-7.14850448213e-33
0.00435618687391	-7.73187854375e-33
0.00452374779851	-8.33813270231e-33
0.00469130888034	-8.96726703362e-33
0.00485887012249	-9.61928161456e-33
0.00500012437646	-1.01867038985e-32
0.00502643152808	-1.02941765219e-32
0.00519399310025	-1.0991951835e-32
0.0053615548421	-1.17126076445e-32
0.00552911675669	-1.24561440268e-32
0.00569667880627	-1.32225610017e-32
0.00586424101706	-1.40118586861e-32
0.00603180341013	-1.48240372067e-32
0.00619936598861	-1.56590966408e-32
0.00636692875568	-1.65170370955e-32
0.00653449171448	-1.73978586479e-32
0.00670205486818	-1.83015614063e-32
0.00686961821995	-1.92281454671e-32
0.00703718177295	-2.01776109277e-32
0.0072047455302	-2.11499578854e-32
0.00737230944605	-2.21451863492e-32
0.00753987356303	-2.31632964952e-32
0.00770743789403	-2.42042884491e-32
0.00787500244226	-2.5268162318e-32
0.00804256721096	-2.63549182189e-32
0.00821013220334	-2.74645562579e-32
0.00837769742264	-2.85970765426e-32
0.00854526287209	-2.97524792094e-32
0.00871282855494	-3.09307643547e-32
0.0088803944743	-3.21319321057e-32
0.00904796061776	-3.33559825397e-32
0.00921552696159	-3.46029157148e-32
0.00938309355183	-3.58727318551e-32
0.00955066039183	-3.71654310968e-32
0.00971822748489	-3.84810135558e-32
0.00988579483432	-3.98194793693e-32
0.0100000759154	-4.07454381452e-32
0.0100533624434	-4.11808286725e-32
0.0102209303156	-4.25650615923e-32
0.010388498454	-4.39721782741e-32
0.0105560668622	-4.54021788449e-32
0.0107236355432	-4.68550634404e-32
0.0108912045005	-4.83308322165e-32
0.0110587736805	-4.98294851336e-32
0.0112263431423	-5.13510224941e-32
0.0113939128905	-5.28954444718e-32
0.0115614829288	-5.44627512128e-32
0.0117290532604	-5.60529428826e-32
0.0118966238888	-5.76660196375e-32
0.0120641948175	-5.93019816224e-32
0.0122317660499	-6.09608289846e-32
0.0123993375895	-6.26425618311e-32
0.0125669094396	-6.43471802979e-32
0.0127344816037	-6.60746844828e-32
0.0129020540852	-6.78250745391e-32
0.0130696268327	-6.95983504658e-32
0.0132371999017	-7.13945127453e-32
0.013404773299	-7.32135617748e-32
0.013572347028	-7.50554980092e-32
0.0137399210924	-7.69203219067e-32
0.0139074954959	-7.88080338328e-32
0.0140750702421	-8.07186338848e-32
0.0142426453346	-8.26521217742e-32
0.0144102207771	-8.460849669e-32
0.0145777965732	-8.65877573803e-32
0.0147453727266	-8.85899022645e-32
0.0149129492407	-9.06149299398e-32
0.0150000891719	-9.16769873305e-32
0.0150805261091	-9.26628396738e-32
0.0152481032982	-9.47336321186e-32
0.0154156808594	-9.68273105329e-32
0.0155832587964	-9.89438806649e-32
0.0157508371131	-1.01083350881e-31
0.0159184158132	-1.03245731443e-31
0.0160859949005	-1.05431032705e-31
0.0162535743787	-1.07639262179e-31
0.0164211542518	-1.09870421301e-31
0.0165887345235	-1.12124501386e-31
0.0167563151977	-1.14401480443e-31
0.0169238962782	-1.16701321614e-31
0.0170914777688	-1.19023974535e-31
0.0172590596735	-1.21369379676e-31
0.0174266419584	-1.2373747792e-31
0.0175942246454	-1.26128224395e-31
0.0177618077584	-1.28541605926e-31
0.0179293913014	-1.30977659272e-31
0.0180969752785	-1.33436488051e-31
0.0182645596936	-1.35918274316e-31
0.0184321445509	-1.38423279128e-31
0.0185997298542	-1.40951828083e-31
0.0187673156077	-1.43504278918e-31
0.0189349018154	-1.46080968163e-31
0.0191024884816	-1.48682139486e-31
0.0192700756102	-1.51307857275e-31
0.0194376632054	-1.5395791536e-31
0.0196052512714	-1.56631754135e-31
0.019772839791	-1.59328400766e-31
0.0199404287539	-1.62046453648e-31
0.0200000905412	-1.63018918646e-31
0.0201080182004	-1.64784127918e-31
0.0202756081349	-1.67539376911e-31
0.0204431985618	-1.70310101963e-31
0.0206107894853	-1.73094449007e-31
0.0207783809099	-1.75891183099e-31
0.0209459728399	-1.78700114537e-31
0.0211135652796	-1.8152253842e-31
0.0212811582335	-1.84361633239e-31
0.0214487517059	-1.87222754507e-31
0.0216163457014	-1.90113550637e-31
0.0217839402241	-1.93043830314e-31
0.0219515352785	-1.96025116857e-31
0.0221191308691	-1.99069842921e-31
0.0222867269821	-2.02190166414e-31
0.0224543236017	-2.05396424003e-31
0.0226219207712	-2.08695282422e-31
0.0227895184956	-2.12087694124e-31
0.0229571167794	-2.15566817882e-31
0.0231247156274	-2.19116103032e-31
0.0232923150443	-2.22707780647e-31
0.0234599150348	-2.26302021664e-31
0.0236275156036	-2.29847028507e-31
0.0237951167554	-2.33280309678e-31
0.0239627184951	-2.36531337842e-31
0.0241303208274	-2.39525724167e-31
0.0242979237572	-2.4219094134e-31
0.0244655272891	-2.44463508474e-31
0.0246331314279	-2.46297410891e-31
0.0248007361785	-2.47673381638e-31
0.0249683415175	-2.48608520101e-31
0.0250000189908	-2.48740023691e-31
0.0251359474494	-2.49165587666e-31
0.025303554008	-2.49461199362e-31
0.0254711611984	-2.49672053213e-31
0.0256387690257	-2.50038296389e-31
0.0258063774951	-2.50863144996e-31
0.0259739866116	-2.52507950597e-31
0.0261415963806	-2.55382046215e-31
0.026309206807	-2.59926910634e-31
0.0264768178962	-2.66594453748e-31
0.0266444296534	-2.75819542433e-31
0.0268120420839	-2.87987244059e-31
0.0269796551929	-3.0339564425e-31
0.0271472689856	-3.222154826e-31
0.0273148834672	-3.44448220306e-31
0.0274824986431	-3.69884489683e-31
0.0276501145188	-3.98065151196e-31
0.0278177310489	-4.28247380969e-31
0.0279853482837	-4.59378338075e-31
0.028152966235	-4.90078907076e-31
0.0283205849085	-5.18639956926e-31
0.02848820431	-5.43033277035e-31
0.0286558244451	-5.60939006605e-31
0.0288234453195	-5.69790910696e-31
0.028991066939	-5.66840296089e-31
0.0291586893094	-5.49238723064e-31
0.0293263124365	-5.1413898326e-31
0.0294939363261	-4.58813100324e-31
0.0296615609843	-3.80785399424e-31
0.0298291864169	-2.77978016892e-31
0.0299968126299	-1.48865608035e-31
0.0300001651621	-1.46008103434e-31
0.0301644396292	7.36451416104e-33
0.0303320674209	1.90650983602e-31
0.0304996960111	3.99900181333e-31
0.0306673253774	6.32835794291e-31
0.0308349555265	8.85860744898e-31
0.0310025864928	1.15393578192e-30
0.0311702182825	1.43047875089e-30
0.0313378509022	1.70728816481e-30
0.0315054843582	1.97449394185e-30
0.031673118657	2.22053753854e-30
0.031840753805	2.43218289732e-30
0.0320083898088	2.59455877278e-30
0.0321760266751	2.69123215736e-30
0.0323436644103	2.7043116129e-30
0.0325113030213	2.61457856412e-30
0.0326789425147	2.40164379593e-30
0.0328465828972	2.0441257579e-30
0.0330142241756	1.51984672857e-30
0.0331818663565	8.0604244784e-31
0.033349509447	-1.20419431541e-31
0.0335171534541	-1.28281690521e-30
0.0336847983663	-2.70435192613e-30
0.0338524441711	-4.40793430119e-30
0.0340200909138	-6.4159756002e-30
0.0341877386016	-8.75019647323e-30
0.0343553872419	-1.14314517857e-29
0.0345230368419	-1.44795759872e-29
0.0346906874092	-1.79132512122e-29
0.0348583389512	-2.17498997506e-29
0.0350000052696	-2.53179173832e-29
0.0350259914755	-2.60056018052e-29
0.0351936449897	-3.06950390531e-29
0.0353612995014	-3.58314635309e-29
0.0355289550185	-4.14266910226e-29
0.0356966115486	-4.74911174759e-29
0.0358642690997	-5.40337565952e-29
0.0360319276797	-6.10622963525e-29
0.0361995872963	-6.8583171752e-29
0.0363672479576	-7.66016512764e-29
0.0365349096715	-8.51219339109e-29
0.0367025724464	-9.41472541078e-29
0.0368702362704	-1.03679991283e-28
0.0370379011354	-1.13721782261e-28
0.0372055670862	-1.24273634571e-28
0.0373732341314	-1.35336033739e-28
0.0375409022794	-1.46909048753e-28
0.0377085715391	-1.58992430937e-28
0.0378762419189	-1.71585705092e-28
0.0380439134276	-1.846882513e-28
0.0382115860739	-1.98299378711e-28
0.0383792598668	-2.12418387943e-28
0.0385469348151	-2.27044624871e-28
0.0387146109278	-2.42177523869e-28
0.0388822882139	-2.57816642049e-28
0.0390499666827	-2.7396168417e-28
0.0392176463432	-2.90612519507e-28
0.0393853272049	-3.07769191611e-28
0.0395530092771	-3.25431921136e-28
0.0397206925692	-3.43601103739e-28
0.0398883770909	-3.622773022e-28
0.0400000556693	-3.74997280526e-28
0.0400560628519	-3.81461236473e-28
0.0402237498288	-4.01153768255e-28
0.0403914380416	-4.21355889082e-28
0.0405591275233	-4.42068702304e-28
0.040726818284	-4.63293404441e-28
0.040894510334	-4.8503126969e-28
0.0410622036836	-5.07283633374e-28
0.0412298983431	-5.30051876427e-28
0.0413975943228	-5.53337411928e-28
0.0415652916334	-5.77141672457e-28
0.0417329902855	-6.01466099158e-28
0.0419006902899	-6.26312132895e-28
0.0420683916575	-6.5168120658e-28
0.0422360943992	-6.77574739967e-28
0.042403798526	-7.0399413469e-28
0.0425715040492	-7.30940772377e-28
0.0427392109801	-7.58416012355e-28
0.0429069193297	-7.86421191674e-28
0.0430746291097	-8.14957625475e-28
0.0432423403316	-8.44026608223e-28
0.0434100530072	-8.73629415237e-28
0.0435777671468	-9.03767305385e-28
0.0437454827094	-9.34441519611e-28
0.0439131997617	-9.656532944e-28
0.044080918316	-9.97403853515e-28
0.0442486383847	-1.02969441303e-27
0.0444163599803	-1.062526187e-27
0.0445840831157	-1.09590038586e-27
0.0447518078034	-1.12981821891e-27
0.0449195340563	-1.16428090037e-27
0.0450000432176	-1.18101687298e-27
0.0450872618876	-1.19928964332e-27
0.0452549913104	-1.23484566763e-27
0.045422722338	-1.27095019706e-27
0.0455904549837	-1.30760446106e-27
0.0457581892613	-1.34480969405e-27
0.0459259251845	-1.38256714002e-27
0.0460936627672	-1.42087804613e-27
0.0462614020234	-1.45974366602e-27
0.0464291429672	-1.49916526235e-27
0.0465968856129	-1.5391441015e-27
0.046764629975	-1.57968145586e-27
0.0469323760681	-1.62077860639e-27
0.0471001239072	-1.66243683517e-27
0.0472678734698	-1.70465743016e-27
0.0474356247899	-1.74744168607e-27
0.0476033779017	-1.79079090345e-27
0.0477711328206	-1.83470638576e-27
0.0479388895625	-1.8791894395e-27
0.0481066481433	-1.9242413778e-27
0.0482744085792	-1.96986351402e-27
0.0484421708863	-2.01605716808e-27
0.0486099350811	-2.0628236621e-27
0.0487777011803	-2.11016432377e-27
0.0489454692008	-2.15808048201e-27
0.0491132391597	-2.20657347234e-27
0.0492810110742	-2.25564463235e-27
0.0494487849619	-2.30529530628e-27
0.0496165608403	-2.35552684146e-27
0.0497843387274	-2.40634058895e-27
0.0499521186413	-2.45773790668e-27
0.0500001040719	-2.47254504823e-27
0.0501199006002	-2.50972015747e-27
0.0502876846226	-2.56228870594e-27
0.0504554707274	-2.6154449256e-27
0.0506232589336	-2.66919019481e-27
0.0507910492606	-2.72352589371e-27
0.050958841699	-2.77845340949e-27
0.0511266362703	-2.83397413402e-27
0.0512944330217	-2.8900894689e-27
0.0514622319735	-2.94680081965e-27
0.0516300331465	-3.00410959571e-27
0.0517978365615	-3.06201721138e-27
0.0519656422396	-3.1205250896e-27
0.0521334502022	-3.17963465728e-27
0.0523012604708	-3.23934734714e-27
0.0524690730675	-3.29966460067e-27
0.0526368880145	-3.36058786311e-27
0.0528047053345	-3.4221185886e-27
0.0529725250503	-3.48425823614e-27
0.0531403471851	-3.54700827331e-27
0.0533081717622	-3.61037017568e-27
0.0534759988054	-3.67434542151e-27
0.053643828339	-3.73893549991e-27
0.0538116603873	-3.80414190686e-27
0.0539794949753	-3.86996614296e-27
0.0541473321279	-3.93640971677e-27
0.0543151718706	-4.00347414554e-27
0.0544830142293	-4.07116095051e-27
0.0546508592301	-4.13947166143e-27
0.0548187068681	-4.20840781222e-27
0.0549865571784	-4.27797094728e-27
0.0550001531724	-4.2836330581e-27
0.0551544102122	-4.34816262171e-27
0.0553222659973	-4.41898439662e-27
0.055490124562	-4.49043783867e-27
0.055657985935	-4.56252452439e-27
0.0558258501457	-4.63524603913e-27
0.0559937172235	-4.70860397876e-27
0.0561615871984	-4.78259994302e-27
0.0563294601009	-4.85723554734e-27
0.0564973359616	-4.93251241197e-27
0.0566652148121	-5.00843216781e-27
0.0568330966845	-5.08499645643e-27
0.057000981611	-5.1622069253e-27
0.0571688696247	-5.24006523356e-27
0.0573367607587	-5.31857304806e-27
0.0575046550469	-5.39773204646e-27
0.0576725525241	-5.47754391407e-27
0.0578404532253	-5.55801034308e-27
0.058008357186	-5.63913303927e-27
0.0581762644422	-5.7209137133e-27
0.0583441750306	-5.80335408932e-27
0.0585120889889	-5.88645590032e-27
0.0586800063552	-5.97022088799e-27
0.0588479271217	-6.05465080081e-27
0.0590158513652	-6.13974740961e-27
0.0591837791347	-6.22551249394e-27
0.0593517104708	-6.31194784593e-27
0.0595196454154	-6.39905526746e-27
0.0596875840108	-6.48683657593e-27
0.0598555262996	-6.57529360244e-27
0.0600001276026	-6.65199786687e-27
0.0600234723254	-6.6644281877e-27
0.0601914221327	-6.75424218989e-27
0.0603593757669	-6.84473747999e-27
0.0605273332741	-6.93591593957e-27
0.0606952947012	-7.02777946479e-27
0.0608632600955	-7.12032996352e-27
0.061031229506	-7.21356935734e-27
0.0611992029824	-7.30749957546e-27
0.0613671805752	-7.40212256177e-27
0.0615351623355	-7.49744027e-27
0.0617031483158	-7.59345466247e-27
0.0618711385696	-7.69016771239e-27
0.0620391331515	-7.78758140344e-27
0.0622071321168	-7.88569772829e-27
0.0623751355219	-7.98451868813e-27
0.0625431434246	-8.08404629697e-27
0.0627111558841	-8.18428257924e-27
0.0628791729428	-8.28522956832e-27
0.063047194642	-8.38688931085e-27
0.0632152210817	-8.48926388459e-27
0.0633832523261	-8.59235537788e-27
0.0635512884406	-8.69616590229e-27
0.0637193294919	-8.80069759931e-27
0.0638873755477	-8.90595263841e-27
0.0640554266776	-9.01193322976e-27
0.0642234829527	-9.11864162123e-27
0.0643915444457	-9.22608010719e-27
0.0645596112303	-9.33425103068e-27
0.0647276833823	-9.44315678595e-27
0.0648957609793	-9.55279981988e-27
0.0650001399425	-9.62126032743e-27
0.0650638441008	-9.66318262975e-27
0.0652319328275	-9.77430776232e-27
0.0654000272419	-9.88617780908e-27
0.0655681274294	-9.9987953906e-27
0.0657362334767	-1.01121631594e-26
0.0659043454727	-1.02262837605e-26
0.0660724635079	-1.0341159868e-26
0.0662405876755	-1.04567940793e-26
0.0664087180713	-1.0573188982e-26
0.0665768547928	-1.06903470781e-26
0.0667449979399	-1.08082707737e-26
0.0669131476155	-1.09269623775e-26
0.0670813039235	-1.10464240547e-26
0.0672494669201	-1.1166657793e-26
0.0674176367691	-1.12876654676e-26
0.0675858135846	-1.1409448747e-26
0.0677539974838	-1.15320091652e-26
0.0679221885862	-1.16553480593e-26
0.0680903870146	-1.17794666511e-26
0.0682585928958	-1.19043660526e-26
0.06842680636	-1.20300472863e-26
0.0685950275402	-1.21565113546e-26
0.0687632565735	-1.22837593041e-26
0.0689314936017	-1.24117922767e-26
0.0690997387702	-1.25406115762e-26
0.0692679922278	-1.26702188032e-26
0.0694362541285	-1.28006158764e-26
0.0696045246315	-1.29318051859e-26
0.0697728038997	-1.30637896528e-26
0.0699410921011	-1.31965728265e-26
0.0700001634099	-1.32433698787e-26
0.0701093894093	-1.33301590093e-26
0.0702776960039	-1.34645532986e-26
0.0704460120688	-1.35997617021e-26
0.0706143377942	-1.37357912045e-26
0.0707826733773	-1.38726497924e-26
0.0709510190214	-1.40103465661e-26
0.0711193749358	-1.41488917239e-26
0.0712877413379	-1.4288296611e-26
0.0714561184527	-1.44285736891e-26
0.0716245064577	-1.45697365414e-26
0.0717929056467	-1.4711799907e-26
0.0719613162705	-1.48547795188e-26
0.0721297385872	-1.49986921631e-26
0.0722981728639	-1.51435555333e-26
0.0724666193784	-1.52893881807e-26
0.0726350784197	-1.54362094498e-26
0.0728035502863	-1.55840393112e-26
0.0729720352885	-1.57328983693e-26
0.073140533751	-1.58828076548e-26
0.0733090460093	-1.60337885891e-26
0.0734775724126	-1.61858628527e-26
0.0736461133264	-1.6339052303e-26
0.0738146691308	-1.64933788908e-26
0.073983240221	-1.66488645597e-26
0.074151827011	-1.68055311795e-26
0.0743204299338	-1.69634004854e-26
0.0744890494395	-1.71224940506e-26
0.0746576860003	-1.72828332061e-26
0.074826340112	-1.74444390514e-26
0.0749950122915	-1.76073324133e-26
0.0750000727416	-1.76122393246e-26
0.0751637030814	-1.77715338677e-26
0.0753324130533	-1.79370637349e-26
0.0755011428056	-1.81039421037e-26
0.0756698929671	-1.82721888464e-26
0.0758386642026	-1.84418236882e-26
0.076007457199	-1.86128661775e-26
0.0761762726602	-1.87853358042e-26
0.07634511141	-1.89592520151e-26
0.0765139742717	-1.9134634276e-26
0.0766828621152	-1.93115020889e-26
0.0768517758661	-1.94898750424e-26
0.0770207165056	-1.96697729074e-26
0.0771896850739	-1.98512156282e-26
0.0773586826836	-2.00342233811e-26
0.0775277105176	-2.02188166229e-26
0.0776967698382	-2.04050161298e-26
0.0778658620003	-2.05928430186e-26
0.0780349884522	-2.07823187825e-26
0.0782041507498	-2.0973465342e-26
0.0783733505703	-2.11663050854e-26
0.0785425897186	-2.1360860855e-26
0.0787118701479	-2.15571560387e-26
0.0788811939747	-2.17552145767e-26
0.0790505634956	-2.19550610332e-26
0.0792199812162	-2.2156720573e-26
0.0793894498718	-2.23602190911e-26
0.0795589724584	-2.25655831739e-26
0.0797285522761	-2.27728402132e-26
0.0798981929624	-2.29820184483e-26
0.0800000082499	-2.31084596342e-26
0.0800678985492	-2.31931469942e-26
0.0802376735284	-2.34062559497e-26
0.0804075229152	-2.36213764651e-26
0.0805774523504	-2.38385408486e-26
0.0807474681669	-2.40577826651e-26
0.0809175776379	-2.42791369594e-26
0.0810877890771	-2.45026404514e-26
0.0812581120516	-2.47283317783e-26
0.081428557692	-2.49562519602e-26
0.0815991390757	-2.51864448884e-26
0.081769871715	-2.54189581102e-26
0.0819407742677	-2.56538438881e-26
0.082111869467	-2.58911606561e-26
0.0822831855063	-2.61309752558e-26
0.0824547580364	-2.63733661494e-26
0.082626620118	-2.66184095614e-26
0.0827987100873	-2.68660462566e-26
0.0829710156227	-2.71162855623e-26
0.0831435390711	-2.73691577009e-26
0.0833162778815	-2.76246859372e-26
0.0834892241304	-2.78828858367e-26
0.0836623652396	-2.81437662547e-26
0.0838356859364	-2.84073323877e-26
0.0840091703583	-2.86735892877e-26
0.0841828033869	-2.89425442727e-26
0.0843565719341	-2.92142095274e-26
0.0845304651789	-2.94886030609e-26
0.0847044741752	-2.97657487594e-26
0.0848785915577	-3.0045676508e-26
0.0850000019041	-3.02424335902e-26
0.0850527750685	-3.03283632439e-26
0.085226900496	-3.06136531657e-26
0.0854009695327	-3.09015968509e-26
0.0855749928499	-3.11922651783e-26
0.0857489782395	-3.14857298712e-26
0.0859229320243	-3.17820659273e-26
0.0860968592245	-3.20813517176e-26
0.0862707638355	-3.23836692254e-26
0.0864446490386	-3.26891042586e-26
0.0866185174545	-3.29977466156e-26
0.0867923712179	-3.33096901221e-26
0.0869662120581	-3.36250326572e-26
0.0871400414855	-3.39438765272e-26
0.0873138608185	-3.42663288083e-26
0.0874876711661	-3.45925016889e-26
0.0876614734615	-3.49225132574e-26
0.0878352684714	-3.52564884542e-26
0.0880090568328	-3.55945603853e-26
0.088182839076	-3.59368717915e-26
0.0883566156354	-3.62835766769e-26
0.0885303868714	-3.66348421067e-26
0.0887041530785	-3.69908498619e-26
0.0888779145165	-3.73517980071e-26
0.0890516714272	-3.77179020628e-26
0.0892254240213	-3.80893955462e-26
0.0893991724889	-3.84665297697e-26
0.0895729169916	-3.88495726941e-26
0.0897466576692	-3.92388066051e-26
0.0899203946495	-3.96345245463e-26
0.0900001387186	-3.98184121449e-26
0.0900941280533	-4.00370253458e-26
0.0902678580013	-4.04466073366e-26
0.0904415845632	-4.0863560622e-26
0.0906153079011	-4.12881585292e-26
0.0907890281332	-4.17206480054e-26
0.0909627453652	-4.2161239824e-26
0.0911364596974	-4.261009906e-26
0.0913101712244	-4.30673364996e-26
0.0914838800347	-4.35330017362e-26
0.0916575862128	-4.40070789573e-26
0.0918312898392	-4.44894861201e-26
0.0920049909905	-4.49800786418e-26
0.0921786897378	-4.54786583042e-26
0.0923523861444	-4.59849881501e-26
0.0925260802672	-4.64988140876e-26
0.0926997721569	-4.70198934258e-26
0.0928734618602	-4.7548030623e-26
