# Model    WH40
# Gamma1   1.3
# Gamma2   2.5
# Gammath  1.35
# alpha0   0.01
# beta0    0.0
# 
# time [s] 		 h(t)
0.0	0.0
0.000167203227042	-1.13909765192e-31
0.00033476139389	-4.5660688075e-31
0.000502319641878	-1.02809219246e-30
0.000669877973993	-1.82836604784e-30
0.000837436393228	-2.85742881401e-30
0.00100499490258	-4.11528087019e-30
0.00117255350504	-5.60192261596e-30
0.00134011219576	-7.3173544363e-30
0.00150767093436	-9.26157657226e-30
0.00167522977511	-1.14345896333e-29
0.00184278872101	-1.38363940901e-29
0.00201034777509	-1.64669904152e-29
0.00217790694038	-1.93263791055e-29
0.00234546621991	-2.24145606771e-29
0.00251302561671	-2.5731535663e-29
0.00268058511424	-2.92773044632e-29
0.00284814469565	-3.30518674561e-29
0.00301570440348	-3.70552255072e-29
0.00318326424077	-4.12873791905e-29
0.0033508242106	-4.57483291379e-29
0.00351838431604	-5.04380759803e-29
0.00368594456015	-5.53566203506e-29
0.00385350494601	-6.05039629297e-29
0.00402106547664	-6.58801043971e-29
0.00418862610468	-7.14850448601e-29
0.0043561868753	-7.73187854765e-29
0.00452374780004	-8.33813270712e-29
0.00469130888201	-8.96726703951e-29
0.00485887012432	-9.61928162138e-29
0.00500012437844	-1.01867039082e-28
0.00502643153009	-1.02941765315e-28
0.00519399310244	-1.09919518451e-28
0.00536155484451	-1.17126076541e-28
0.00552911675931	-1.24561440361e-28
0.00569667880925	-1.32225610115e-28
0.00586424102029	-1.4011858706e-28
0.00603180341362	-1.48240372259e-28
0.0061993659924	-1.56590966606e-28
0.00636692875977	-1.65170371146e-28
0.0065344917189	-1.73978586774e-28
0.00670205487295	-1.83015614359e-28
0.0068696182251	-1.92281454964e-28
0.0070371817785	-2.01776109569e-28
0.00720474553616	-2.11499579238e-28
0.00737230945264	-2.21451863883e-28
0.00753987357008	-2.31632965341e-28
0.00770743790157	-2.42042884882e-28
0.00787500245033	-2.52681623667e-28
0.00804256721957	-2.63549182672e-28
0.00821013221253	-2.74645563163e-28
0.00837769743243	-2.85970766109e-28
0.00854526288251	-2.9752479277e-28
0.00871282856603	-3.09307644326e-28
0.00888039448608	-3.21319321832e-28
0.0090479606305	-3.33559826273e-28
0.00921552697509	-3.4602915812e-28
0.00938309356612	-3.58727319621e-28
0.00955066040694	-3.71654312134e-28
0.00971822750086	-3.84810136823e-28
0.00988579485119	-3.98194795053e-28
0.0100000759329	-4.07454382913e-28
0.0100533624612	-4.1180828818e-28
0.0102209303343	-4.25650617478e-28
0.0103884984738	-4.39721784394e-28
0.010556066883	-4.54021790198e-28
0.0107236355651	-4.68550636251e-28
0.0108912045235	-4.83308324111e-28
0.0110587737051	-4.98294853379e-28
0.011226343168	-5.13510227172e-28
0.0113939129175	-5.28954447148e-28
0.0115614829571	-5.44627514657e-28
0.01172905329	-5.60529431552e-28
0.0118966239198	-5.76660199292e-28
0.0120641948499	-5.93019819335e-28
0.0122317660838	-6.09608293055e-28
0.0123993376249	-6.26425621811e-28
0.0125669094766	-6.43471806674e-28
0.0127344816423	-6.60746848716e-28
0.0129020541254	-6.78250749474e-28
0.0130696268751	-6.95983509033e-28
0.0132371999459	-7.1394513212e-28
0.0134047733449	-7.32135622609e-28
0.0135723470758	-7.50554985245e-28
0.0137399211422	-7.69203224517e-28
0.0139074955477	-7.88080343973e-28
0.0140750702958	-8.0718634488e-28
0.0142426453904	-8.26521224062e-28
0.0144102208351	-8.4608497361e-28
0.0145777966334	-8.65877580803e-28
0.014745372789	-8.85899030031e-28
0.0149129493055	-9.06149307083e-28
0.0150000892379	-9.16769881178e-28
0.0150805261767	-9.26628404807e-28
0.0152481033683	-9.47336329742e-28
0.015415680932	-9.68273114177e-28
0.0155832588716	-9.89438815377e-28
0.0157508371909	-1.01083351853e-27
0.0159184158937	-1.03245732513e-27
0.0160859949838	-1.05431033775e-27
0.0162535744648	-1.07639263351e-27
0.0164211543408	-1.09870422467e-27
0.0165887346154	-1.12124502552e-27
0.0167563152926	-1.14401481707e-27
0.0169238963763	-1.16701322973e-27
0.0170914778701	-1.19023975991e-27
0.017259059778	-1.21369381133e-27
0.0174266420669	-1.23737479373e-27
0.0175942247573	-1.2612822595e-27
0.0177618078738	-1.28541607584e-27
0.0179293914203	-1.30977660924e-27
0.0180969754011	-1.33436489806e-27
0.0182645598199	-1.35918276163e-27
0.0184321446809	-1.38423281074e-27
0.0185997299881	-1.40951830124e-27
0.0187673157456	-1.43504280966e-27
0.0189349019573	-1.46080970301e-27
0.0191024886276	-1.4868214172e-27
0.0192700757604	-1.51307859608e-27
0.0194376633599	-1.5395791779e-27
0.0196052514302	-1.56631756667e-27
0.0197728399551	-1.59328403297e-27
0.0199404289225	-1.6204645627e-27
0.0200000907115	-1.63018921272e-27
0.0201080183737	-1.64784130643e-27
0.0202756083129	-1.6753937973e-27
0.0204431987446	-1.70310104782e-27
0.020610789673	-1.73094452017e-27
0.0207783811026	-1.7589118621e-27
0.0209459730377	-1.78700117837e-27
0.0211135654826	-1.81522541916e-27
0.0212811584418	-1.84361637123e-27
0.0214487519196	-1.87222758684e-27
0.0216163459205	-1.90113555104e-27
0.0217839404489	-1.93043834984e-27
0.021951535509	-1.96025121718e-27
0.0221191311054	-1.99069847783e-27
0.0222867272252	-2.02190171286e-27
0.0224543238508	-2.05396428589e-27
0.0226219210265	-2.08695286529e-27
0.0227895187571	-2.12087697654e-27
0.0229571170473	-2.15566820539e-27
0.0231247159017	-2.1911610492e-27
0.0232923153252	-2.22707781841e-27
0.0234599153223	-2.26302022364e-27
0.0236275158979	-2.29847029189e-27
0.0237951170566	-2.33280310913e-27
0.0239627188033	-2.36531340413e-27
0.0241303211428	-2.39525729033e-27
0.0242979240798	-2.42190949574e-27
0.0244655276191	-2.44463520951e-27
0.0246331317654	-2.46297428399e-27
0.0248007365237	-2.47673404575e-27
0.0249683418715	-2.48608548592e-27
0.0250000193463	-2.48740053164e-27
0.0251359478113	-2.49165620963e-27
0.0253035543779	-2.49461235935e-27
0.0254711615765	-2.49672090765e-27
0.0256387694121	-2.50038331639e-27
0.0258063778899	-2.50863174095e-27
0.025973987015	-2.52507968704e-27
0.0261415967926	-2.55382048364e-27
0.0263092072279	-2.59926891777e-27
0.0264768183261	-2.66594409483e-27
0.0266444300924	-2.75819469487e-27
0.0268120425321	-2.87987140802e-27
0.0269796556505	-3.03395511649e-27
0.0271472694527	-3.22215324707e-27
0.027314883944	-3.44448044846e-27
0.0274824991298	-3.69884308167e-27
0.0276501150155	-3.98064979506e-27
0.027817731557	-4.28247238787e-27
0.0279853488022	-4.59378248607e-27
0.0281529667639	-4.90078896097e-27
0.0283205854481	-5.18640051628e-27
0.0284882048603	-5.43033504196e-27
0.0286558250063	-5.60939390558e-27
0.0288234458918	-5.69791471117e-27
0.0289910675226	-5.66841045075e-27
0.0291586899044	-5.49239662805e-27
0.0293263130431	-5.14140103224e-27
0.0294939369446	-4.58814374618e-27
0.0296615616147	-3.80786785018e-27
0.0298291870594	-2.77979451666e-27
0.0299968132847	-1.48867010156e-27
0.0300001658172	-1.46009503887e-27
0.0301644402965	7.36324634784e-29
0.0303320681009	1.90649970524e-27
0.030499696704	3.99899560202e-27
0.0306673260848	6.32835716183e-27
0.0308349562472	8.85861368203e-27
0.0310025872268	1.1539372686e-26
0.0311702190302	1.43048125887e-26
0.0313378516637	1.70729184059e-26
0.0315054851337	1.97449891089e-26
0.0316731194467	2.22054389463e-26
0.0318407546091	2.43219069373e-26
0.0320083906276	2.59456801476e-26
0.0321760275086	2.69124278725e-26
0.0323436652589	2.70432350365e-26
0.0325113038851	2.61459151193e-26
0.0326789433939	2.40165750808e-26
0.0328465837921	2.04413985042e-26
0.0330142250864	1.51986071866e-26
0.0331818672834	8.06055753207e-27
0.0333495103903	-1.20407496205e-27
0.0335171544139	-1.28280712713e-26
0.0336847993446	-2.70434519836e-26
0.0338524451664	-4.40793160173e-26
0.0340200919264	-6.41597800414e-26
0.0341877396316	-8.75020513984e-26
0.0343553882896	-1.14314679519e-25
0.0345230379077	-1.4479600953e-25
0.0346906884932	-1.79132863566e-25
0.0348583400537	-2.17499464708e-25
0.0350000063878	-2.53179750269e-25
0.0350259925966	-2.60056615587e-25
0.0351936461298	-3.06951133258e-25
0.0353613006607	-3.58315538382e-25
0.0355289561973	-4.14267988711e-25
0.0356966127472	-4.74912443921e-25
0.0358642703183	-5.40339041162e-25
0.0360319289185	-6.10624659846e-25
0.0361995885557	-6.85833650134e-25
0.0363672492378	-7.66018696439e-25
0.0365349109729	-8.51221788644e-25
0.0367025737691	-9.41475270964e-25
0.0368702376167	-1.03680293723e-24
0.0370379025037	-1.13722115652e-24
0.0372055684768	-1.24274000183e-24
0.0373732355444	-1.35336432841e-24
0.0375409037154	-1.46909482699e-24
0.0377085729982	-1.58992901086e-24
0.0378762434014	-1.71586212533e-24
0.0380439149339	-1.84688797384e-24
0.0382115876043	-1.98299964417e-24
0.0383792614216	-2.12419014438e-24
0.0385469363946	-2.2704529313e-24
0.0387146125323	-2.4217823496e-24
0.0388822898438	-2.57817396859e-24
0.0390499683383	-2.73962483471e-24
0.0392176480249	-2.90613364179e-24
0.039385328913	-3.07770082238e-24
0.0395530110119	-3.25432858511e-24
0.0397206943311	-3.43602088339e-24
0.0398883788802	-3.62278334424e-24
0.0400000574771	-3.74998344724e-24
0.040056064669	-3.81462316812e-24
0.0402237516762	-4.01154897094e-24
0.0403914399176	-4.21357066626e-24
0.0405591294281	-4.42069928559e-24
0.0407268202182	-4.63294679599e-24
0.0408945122978	-4.85032593755e-24
0.0410622056775	-5.07285006152e-24
0.0412299003673	-5.30053297928e-24
0.0413975963779	-5.53338881857e-24
0.0415652937197	-5.77143190529e-24
0.0417329924035	-6.01467664995e-24
0.0419006924399	-6.26313746003e-24
0.0420683938399	-6.51682866587e-24
0.0422360966145	-6.7757644599e-24
0.0424038007746	-7.03995886158e-24
0.0425715063316	-7.30942568422e-24
0.0427392132966	-7.58417852008e-24
0.0429069216809	-7.86423073765e-24
0.0430746314959	-8.14959548858e-24
0.0432423427533	-8.44028571343e-24
0.0434100554649	-8.73631416741e-24
0.0435777696425	-9.03769343427e-24
0.043745485243	-9.34443592385e-24
0.0439132023327	-9.65655399535e-24
0.0440809209248	-9.97405988425e-24
0.0442486410319	-1.02969657533e-23
0.0444163626664	-1.06252837371e-23
0.0445840858411	-1.09590259409e-23
0.0447518105687	-1.1298204458e-23
0.0449195368621	-1.16428314106e-23
0.0450000460429	-1.18101911956e-23
0.0450872647343	-1.19929189486e-23
0.0452549941985	-1.23484792524e-23
0.0454227252681	-1.27095245583e-23
0.0455904579564	-1.3076067162e-23
0.0457581922771	-1.3448119416e-23
0.0459259282439	-1.38256937332e-23
0.0460936658708	-1.42088026024e-23
0.0462614051718	-1.45974585511e-23
0.046429146161	-1.49916741963e-23
0.0465968888526	-1.53914622117e-23
0.0467646332613	-1.57968353204e-23
0.0469323794016	-1.62078063042e-23
0.0471001272885	-1.66243880124e-23
0.0472678769023	-1.70465933047e-23
0.0474356282715	-1.74744351282e-23
0.0476033814329	-1.79079264986e-23
0.0477711364022	-1.83470804403e-23
0.0479388931951	-1.87919100188e-23
0.0481066518277	-1.92424283557e-23
0.0482744123159	-1.9698648594e-23
0.048442174676	-2.01605839138e-23
0.0486099389246	-2.06282475646e-23
0.0487777050782	-2.11016527861e-23
0.0489454731539	-2.15808128949e-23
0.0491132431687	-2.20657412277e-23
0.0492810151398	-2.25564511696e-23
0.0494487890849	-2.30529561442e-23
0.0496165650215	-2.35552696342e-23
0.0497843429675	-2.40634051499e-23
0.0499521229411	-2.45773762614e-23
0.050000108389	-2.47254470564e-23
0.0501199049605	-2.50971965773e-23
0.0502876890442	-2.56228797829e-23
0.0504554752112	-2.61544395738e-23
0.0506232634804	-2.66918897241e-23
0.0507910538713	-2.72352440657e-23
0.0509588463773	-2.77845164389e-23
0.0511266410142	-2.83397207736e-23
0.0512944378321	-2.89008710666e-23
0.0514622368512	-2.94679813728e-23
0.0516300380923	-3.00410657865e-23
0.0517978415765	-3.06201384502e-23
0.0519656473248	-3.12052135748e-23
0.0521334553584	-3.17963054286e-23
0.052301265699	-3.23934283392e-23
0.0524690783687	-3.29965967112e-23
0.0526368933897	-3.36058249984e-23
0.0528047107847	-3.42211277317e-23
0.0529725305765	-3.48425195007e-23
0.0531403527883	-3.54700149818e-23
0.0533081774435	-3.61036289098e-23
0.053476004566	-3.674337607e-23
0.0536438341798	-3.7389271361e-23
0.0538116663097	-3.80413297235e-23
0.0539795009802	-3.86995661638e-23
0.0541473382165	-3.93639957683e-23
0.0543151780441	-4.00346336984e-23
0.0544830204888	-4.0711495157e-23
0.054650865577	-4.13945954627e-23
0.0548187133069	-4.20839499136e-23
0.054986563707	-4.27795739642e-23
0.0550001597083	-4.28361944802e-23
0.0551544168318	-4.34814831762e-23
0.0553222727092	-4.41896931201e-23
0.0554901313675	-4.49042194935e-23
0.0556579928355	-4.56250780319e-23
0.0558258571425	-4.63522846071e-23
0.055993724318	-4.708585513e-23
0.056161594392	-4.78258056281e-23
0.056329467395	-4.85721522352e-23
0.0564973433577	-4.93249111542e-23
0.0566652223117	-5.00840986737e-23
0.056833104289	-5.08497312113e-23
0.0570009893221	-5.16218252402e-23
0.0571688774438	-5.24003973325e-23
0.0573367686875	-5.3185464177e-23
0.057504663087	-5.39770425103e-23
0.0576725606771	-5.47751491859e-23
0.0578404614929	-5.55798011362e-23
0.0580083655698	-5.63910153982e-23
0.0581762729441	-5.72088090886e-23
0.0583441836524	-5.80331994306e-23
0.0585120977323	-5.88642037339e-23
0.058680015222	-5.97018394338e-23
0.0588479361176	-6.05461240074e-23
0.0590158604884	-6.13970751316e-23
0.059183788387	-6.22547106331e-23
0.0593517198543	-6.31190483832e-23
0.0595196549321	-6.39901064309e-23
0.0596875936627	-6.48679029404e-23
0.0598555360888	-6.57524561828e-23
0.0600001375117	-6.65194838434e-23
0.0600234822541	-6.66437846046e-23
0.060191432203	-6.75419067495e-23
0.060359385981	-6.84468413257e-23
0.0605273436344	-6.93586071499e-23
0.0606953052099	-7.02772231842e-23
0.0608632707551	-7.12027084773e-23
0.0610312403187	-7.21350822451e-23
0.0611992139508	-7.30743637898e-23
0.0613671917018	-7.40205725309e-23
0.0615351736229	-7.49737279856e-23
0.0617031597666	-7.59338497787e-23
0.0618711501864	-7.69009576397e-23
0.062039144937	-7.78750713885e-23
0.0622071440739	-7.88562109305e-23
0.0623751476534	-7.98443962988e-23
0.0625431557334	-8.08396475931e-23
0.0627111683732	-8.18419850588e-23
0.0628791856193	-8.28514290283e-23
0.063047207505	-8.38679999502e-23
0.0632152341343	-8.48917185725e-23
0.0633832655715	-8.59226057974e-23
0.0635513018822	-8.69606827218e-23
0.0637193431331	-8.80059707405e-23
0.0638873893919	-8.90584915482e-23
0.0640554407283	-9.01182672377e-23
0.0642234972136	-9.11853202678e-23
0.0643915589205	-9.22596735922e-23
0.0645596259229	-9.33413506206e-23
0.0647276982965	-9.44303752873e-23
0.0648957761191	-9.55267720509e-23
0.0650001552245	-9.62113559214e-23
0.0650638594703	-9.66305658761e-23
0.0652319484309	-9.7741782176e-23
0.0654000430836	-9.88604470023e-23
0.0655681435136	-9.99865863904e-23
0.0657362498081	-1.01120226783e-22
0.0659043620558	-1.02261395015e-22
0.0660724803475	-1.03410117234e-22
0.0662406047765	-1.04566419915e-22
0.0664087354387	-1.05730328728e-22
0.0665768724317	-1.06901868611e-22
0.0667450158555	-1.08081063703e-22
0.0669131658134	-1.09267937102e-22
0.067081322411	-1.10462510356e-22
0.0672494857036	-1.11664803354e-22
0.0674176558519	-1.12874834836e-22
0.0675858329728	-1.14092621589e-22
0.0677540171834	-1.15318178762e-22
0.0679222086037	-1.16551519816e-22
0.0680904073564	-1.17792657067e-22
0.0682586135688	-1.1904160135e-22
0.068426827371	-1.20298363086e-22
0.0685950488964	-1.21562952286e-22
0.0687632782823	-1.2283537933e-22
0.0689315156706	-1.24115655532e-22
0.0690997612071	-1.25403794227e-22
0.0692680150406	-1.26699811036e-22
0.0694362773256	-1.28003725333e-22
0.0696045482215	-1.29315561025e-22
0.0697728278914	-1.30635347215e-22
0.0699411165035	-1.31963119502e-22
0.0700000196624	-1.32429734218e-22
0.070109414232	-1.33298920819e-22
0.0702777212565	-1.34642802033e-22
0.0704460377614	-1.35994823407e-22
0.0706143639371	-1.37355054524e-22
0.0707826999813	-1.3872357561e-22
0.0709510460976	-1.4010047729e-22
0.0711194024957	-1.41485861845e-22
0.0712877693934	-1.42879842329e-22
0.0714561470163	-1.44282543757e-22
0.071624535547	-1.45694101849e-22
0.0717929352701	-1.4711466372e-22
0.0719613464417	-1.48544387078e-22
0.0721297693204	-1.49983439502e-22
0.0722982041739	-1.51431998013e-22
0.0724666512807	-1.52890248142e-22
0.0726351109303	-1.54358383118e-22
0.0728035834217	-1.55836603043e-22
0.0729720690663	-1.57325113486e-22
0.073140568189	-1.58824125133e-22
0.0733090811264	-1.60333851905e-22
0.0734776082285	-1.6185451071e-22
0.0736461498615	-1.63386320115e-22
0.0738147064064	-1.64929499633e-22
0.0739832782595	-1.66484268606e-22
0.0741518658357	-1.68050845726e-22
0.074320469569	-1.69629448449e-22
0.0744890899108	-1.71220292396e-22
0.0746577273346	-1.72823590894e-22
0.0748263823373	-1.74439554826e-22
0.0749950554372	-1.76068392572e-22
0.0750001159154	-1.7611745877e-22
0.0751637471785	-1.77710309876e-22
0.0753324581344	-1.79365509958e-22
0.0755011889049	-1.81034193589e-22
0.0756699401208	-1.82716559695e-22
0.0758387124487	-1.84412805243e-22
0.076007506583	-1.86123125911e-22
0.0761763232193	-1.87847716589e-22
0.0763451631891	-1.89586771649e-22
0.0765140273184	-1.91340485756e-22
0.0766829164798	-1.93109053926e-22
0.0768518316025	-1.94892672238e-22
0.0770207736707	-1.96691538112e-22
0.0771897437285	-1.98505851187e-22
0.0773587428926	-2.0033581322e-22
0.0775277723501	-2.02181628783e-22
0.0776968333684	-2.04043505651e-22
0.0778659273078	-2.05921654961e-22
0.0780350556222	-2.07816291762e-22
0.0782042198744	-2.09727635363e-22
0.0783734217486	-2.11655909535e-22
0.0785426630577	-2.13601342998e-22
0.078711945764	-2.15564169535e-22
0.0788812719939	-2.17544628844e-22
0.0790506440554	-2.19542966361e-22
0.0792200644666	-2.21559434328e-22
0.0793895359772	-2.23594291403e-22
0.0795590615997	-2.25647803919e-22
0.0797286446526	-2.27720246107e-22
0.079898288795	-2.29811900352e-22
0.0800001062723	-2.31076235579e-22
0.0800679980835	-2.31923058289e-22
0.0802377770386	-2.34054021197e-22
0.080407630709	-2.36205101167e-22
0.0805775647752	-2.38376621663e-22
0.0807475856227	-2.40568919118e-22
0.0809177005689	-2.4278234466e-22
0.0810879180016	-2.45017266448e-22
0.0812582475701	-2.47274072132e-22
0.0814287005076	-2.49553173368e-22
0.0815992900194	-2.51855011007e-22
0.0817700317802	-2.54180062862e-22
0.0819409446588	-2.56528854753e-22
0.082112051665	-2.5890197532e-22
0.0822833813687	-2.6130009868e-22
0.0824549699402	-2.63724017439e-22
0.0826268472818	-2.66174449344e-22
0.082798949353	-2.68650767531e-22
0.0829712672282	-2.71153113285e-22
0.0831438029906	-2.73681785139e-22
0.0833165537755	-2.76237010968e-22
0.0834895113513	-2.7881894148e-22
0.0836626629171	-2.81427661544e-22
0.0838359931218	-2.84063221555e-22
0.0840094862021	-2.86725673008e-22
0.0841831271122	-2.89415089959e-22
0.0843569028134	-2.92131594456e-22
0.0845308026406	-2.94875368904e-22
0.0847048177404	-2.97646653247e-22
0.0848789408312	-3.00445747503e-22
0.0850000167609	-3.02407686398e-22
0.0850531658979	-3.03273011681e-22
0.0852274879554	-3.06128867457e-22
0.0854019028549	-3.09013798124e-22
0.0855764070546	-3.11928348499e-22
0.0857509753507	-3.14872747838e-22
0.0859255529998	-3.17846758674e-22
0.0861001380733	-3.20851073361e-22
0.0862747310735	-3.23886477957e-22
0.0864493325185	-3.26953810214e-22
0.0866239432268	-3.30053962938e-22
0.0867985643496	-3.33187884166e-22
0.0869731969523	-3.36356568783e-22
0.0871478418165	-3.39561056725e-22
0.0873224995846	-3.42802437084e-22
0.0874971707874	-3.46081854032e-22
0.0876718559039	-3.49400515399e-22
0.087846555397	-3.52759702765e-22
0.08802126968	-3.56160784505e-22
0.0881959991181	-3.59605230564e-22
0.0883707440204	-3.63094629241e-22
0.0885455046639	-3.66630705645e-22
0.0887202813112	-3.70215339332e-22
0.0888950742066	-3.73850579777e-22
0.0890698835824	-3.77538657441e-22
0.0892447096552	-3.81281989203e-22
0.0894195526311	-3.85083175952e-22
0.0895944127124	-3.88944988944e-22
0.089769290093	-3.92870344991e-22
0.0899441849564	-3.96862267241e-22
0.0900001550344	-3.9815424338e-22
0.0901190974827	-4.00923832249e-22
0.090294027849	-4.0505810197e-22
0.0904689761723	-4.09268042969e-22
0.0906439426583	-4.13556434981e-22
0.0908189274605	-4.17925771101e-22
0.090993930725	-4.22378155415e-22
0.0911689525932	-4.26915205377e-22
0.0913439932127	-4.31537964639e-22
0.0915190527343	-4.36246835691e-22
0.0916941313037	-4.41041541174e-22
0.0918692290622	-4.45921124476e-22
0.0920443461461	-4.50883997983e-22
0.0922194826819	-4.55928049058e-22
0.0923946387948	-4.61050811578e-22
0.0925698146042	-4.66249707667e-22
0.0927450102333	-4.71522365761e-22
0.0929202257982	-4.7686701248e-22
