# Model    WH40
# Gamma1   1.3
# Gamma2   2.5
# Gammath  1.35
# alpha0   0.003
# beta0    0.0
# 
# time [s] 		 h(t)
0.0	0.0
0.000167203227042	-1.02518788672e-32
0.000334761393889	-4.1094619262e-32
0.000502319641873	-9.25282972905e-32
0.000669877973982	-1.64552944333e-31
0.000837436393205	-2.57168593232e-31
0.00100499490254	-3.70375278347e-31
0.00117255350498	-5.04173035494e-31
0.00134011219568	-6.58561899283e-31
0.00150767093426	-8.33541891325e-31
0.00167522977498	-1.02911306702e-30
0.00184278872085	-1.24527546779e-30
0.00201034777489	-1.48202913677e-30
0.00217790694014	-1.73937411894e-30
0.00234546621963	-2.01731046063e-30
0.00251302561639	-2.3158382091e-30
0.00268058511387	-2.63495740081e-30
0.00284814469523	-2.9746680711e-30
0.003015704403	-3.33497029384e-30
0.00318326424023	-3.71586412563e-30
0.00335082421	-4.11734962166e-30
0.00351838431536	-4.5394268377e-30
0.00368594455939	-4.98209582876e-30
0.00385350494516	-5.44535666182e-30
0.00402106547569	-5.92920939268e-30
0.00418862610363	-6.43365403311e-30
0.00435618687414	-6.95869069053e-30
0.00452374779876	-7.50431943236e-30
0.0046913088806	-8.07054033144e-30
0.00485887012276	-8.65735345479e-30
0.00500012437675	-9.16803351154e-30
0.00502643152837	-9.26475887252e-30
0.00519399310055	-9.89275665759e-30
0.00536155484243	-1.05413468828e-29
0.00552911675703	-1.12105296239e-29
0.00569667880675	-1.19003049016e-29
0.00586424101757	-1.26106728236e-29
0.00603180341066	-1.3341633489e-29
0.00619936598917	-1.40931869825e-29
0.00636692875626	-1.48653333887e-29
0.00653449171509	-1.56580727893e-29
0.00670205486882	-1.64714052717e-29
0.00686961822063	-1.73053309264e-29
0.00703718177367	-1.81598498379e-29
0.00720474553095	-1.90349620996e-29
0.00737230944702	-1.99306677174e-29
0.00753987356403	-2.08469668486e-29
0.00770743789508	-2.17838596071e-29
0.00787500244337	-2.2741346092e-29
0.00804256721211	-2.37194263997e-29
0.00821013220454	-2.4718100635e-29
0.00837769742389	-2.57373688972e-29
0.0085452628734	-2.67772312914e-29
0.00871282855631	-2.78376879251e-29
0.00888039447574	-2.89187389009e-29
0.00904796061949	-3.00203843006e-29
0.0092155269634	-3.11426241587e-29
0.0093830935537	-3.2285458684e-29
0.00955066039377	-3.34488879957e-29
0.00971822748691	-3.46329122098e-29
0.00988579483643	-3.58375314409e-29
0.0100000759175	-3.66708943597e-29
0.0100533624456	-3.70627458083e-29
0.0102209303178	-3.83085554575e-29
0.0103884984564	-3.95749604732e-29
0.0105560668647	-4.0861960975e-29
0.0107236355458	-4.21695571083e-29
0.0108912045031	-4.34977490188e-29
0.0110587736836	-4.48465366471e-29
0.0112263431455	-4.6215920256e-29
0.0113939128939	-4.760590005e-29
0.0115614829322	-4.90164761177e-29
0.011729053264	-5.04476486038e-29
0.0118966238925	-5.18994176823e-29
0.0120641948213	-5.33717834721e-29
0.0122317660539	-5.48647461172e-29
0.0123993375936	-5.63783056802e-29
0.0125669094439	-5.79124623027e-29
0.0127344816081	-5.94672160749e-29
0.0129020540897	-6.10425671111e-29
0.0130696268378	-6.26385154686e-29
0.013237199907	-6.42550615233e-29
0.0134047733044	-6.58922056519e-29
0.0135723470336	-6.75499482348e-29
0.0137399210982	-6.9228289765e-29
0.0139074955019	-7.09272304846e-29
0.0140750702482	-7.26467705457e-29
0.0142426453409	-7.43869096406e-29
0.0144102207836	-7.61476470823e-29
0.0145777965799	-7.79289816871e-29
0.0147453727335	-7.97309121146e-29
0.0149129492478	-8.15534370123e-29
0.0150000891791	-8.25092886725e-29
0.0150805261169	-8.33965557712e-29
0.0152481033063	-8.52602689772e-29
0.0154156808677	-8.71445795378e-29
0.0155832588049	-8.9049492657e-29
0.0157508371219	-9.09750158776e-29
0.0159184158222	-9.29211584161e-29
0.0160859949097	-9.48879295221e-29
0.0162535743882	-9.68753360801e-29
0.0164211542615	-9.88833792853e-29
0.0165887345335	-1.00912051335e-28
0.016756315208	-1.02961332458e-28
0.0169238962888	-1.05031189597e-28
0.0170914777797	-1.07121577227e-28
0.0172590596847	-1.09232441854e-28
0.0174266419705	-1.11363730212e-28
0.0175942246579	-1.13515402072e-28
0.0177618077711	-1.15687445481e-28
0.0179293913145	-1.17879893459e-28
0.0180969752919	-1.20092839365e-28
0.0182645597074	-1.22326447059e-28
0.018432144565	-1.24580951359e-28
0.0185997298686	-1.26856645448e-28
0.0187673156225	-1.29153851175e-28
0.0189349018306	-1.3147287155e-28
0.0191024884971	-1.33813925712e-28
0.0192700756261	-1.36177071694e-28
0.0194376632217	-1.38562124055e-28
0.0196052512881	-1.40968578929e-28
0.0197728398089	-1.43395560867e-28
0.0199404287722	-1.45841808457e-28
0.0200000905596	-1.46717026928e-28
0.0201080182191	-1.48305715273e-28
0.020275608154	-1.50785439396e-28
0.0204431985813	-1.53279091913e-28
0.0206107895053	-1.55785004308e-28
0.0207783809304	-1.58302065022e-28
0.0209459728608	-1.60830103401e-28
0.021113565301	-1.6337028501e-28
0.0212811582554	-1.65925470523e-28
0.0214487517283	-1.68500479839e-28
0.0216163457242	-1.71102196474e-28
0.0217839402475	-1.73739448306e-28
0.0219515353024	-1.76422606197e-28
0.0221191308935	-1.79162859539e-28
0.022286727008	-1.81971150455e-28
0.0224543236281	-1.84856781882e-28
0.0226219207982	-1.87825753768e-28
0.0227895185231	-1.90878923575e-28
0.0229571168076	-1.9401013397e-28
0.0231247156562	-1.972044897e-28
0.0232923150736	-2.00436998813e-28
0.0234599150647	-2.03671815167e-28
0.0236275156341	-2.06862321274e-28
0.0237951167865	-2.09952274942e-28
0.0239627185269	-2.12878201745e-28
0.0241303208598	-2.15573151849e-28
0.0242979237903	-2.179718508e-28
0.0244655273228	-2.20017165617e-28
0.0246331314623	-2.21667682989e-28
0.0248007362136	-2.22906062253e-28
0.0249683415544	-2.23747692513e-28
0.0250000190278	-2.23866046713e-28
0.025135947487	-2.24249058146e-28
0.0253035540463	-2.24515111926e-28
0.0254711612374	-2.2470488123e-28
0.0256387690655	-2.25034497517e-28
0.0258063775356	-2.25776854411e-28
0.025973986653	-2.27257167577e-28
0.0261415964227	-2.29843836279e-28
0.0263092068499	-2.33934191392e-28
0.02647681794	-2.39934952232e-28
0.026644429698	-2.48237499976e-28
0.0268120421293	-2.59188396985e-28
0.0269796552391	-2.73055922748e-28
0.0271472690326	-2.89993745932e-28
0.0273148835151	-3.10003185451e-28
0.027482498692	-3.32895814244e-28
0.0276501145686	-3.58258411127e-28
0.0278177311008	-3.85422439255e-28
0.0279853483366	-4.13440345852e-28
0.0281529662889	-4.41070930018e-28
0.0283205849633	-4.66775976473e-28
0.0284882043658	-4.88730096697e-28
0.0286558245018	-5.04845413999e-28
0.0288234453772	-5.12812314434e-28
0.0289910669978	-5.10156968172e-28
0.0291586893692	-4.94315770979e-28
0.0293263124973	-4.62726223953e-28
0.029493936388	-4.12933135199e-28
0.0296615610473	-3.42708381055e-28
0.029829186481	-2.50181866022e-28
0.0299968126951	-1.33980760601e-28
0.0300001652273	-1.31409006905e-28
0.0301644396955	6.62637360904e-30
0.0303320674883	1.71584327083e-28
0.0304996960797	3.599088615e-28
0.0306673254487	5.69551312286e-28
0.030834955599	7.97274321193e-28
0.0310025865664	1.03854257173e-27
0.0311702183574	1.2874321282e-27
0.0313378509784	1.53656164898e-27
0.0315054844356	1.77704804974e-27
0.0316731187356	1.9984886224e-27
0.031840753885	2.18897088691e-27
0.0320083898901	2.33511068927e-27
0.0321760267577	2.42211827489e-27
0.0323436644943	2.43389129741e-27
0.0325113031067	2.35313297826e-27
0.0326789426014	2.16149295522e-27
0.0328465829854	1.83972775861e-27
0.0330142242652	1.36787735871e-27
0.0331818664476	7.25453840648e-28
0.0333495095395	-1.08361994215e-28
0.0335171535481	-1.1545204274e-27
0.0336847984635	-2.43390330546e-27
0.0338524442698	-3.96712952586e-27
0.0340200910141	-5.77436958663e-27
0.0341877387034	-7.87517214871e-27
0.0343553873453	-1.02883066496e-26
0.034523036947	-1.30316241607e-26
0.0346906875159	-1.61219386665e-26
0.0348583390596	-1.95749302464e-26
0.0350000053794	-2.27861536879e-26
0.0350259915855	-2.34050711414e-26
0.0351936451014	-2.76255748875e-26
0.0353612996149	-3.22483683442e-26
0.0355289551337	-3.72840857018e-26
0.0356966116656	-4.27420833713e-26
0.0358642692185	-4.86304736512e-26
0.0360319278003	-5.49561757246e-26
0.0361995874188	-6.17249810972e-26
0.0363672480819	-6.89416313762e-26
0.0365349097978	-7.66099056528e-26
0.0367025725746	-8.47327148856e-26
0.0368702364024	-9.33122005636e-26
0.0370379012694	-1.02349835843e-25
0.0372055672222	-1.11846527404e-25
0.0373732342694	-1.21802712099e-25
0.0375409024195	-1.32218452165e-25
0.0377085716813	-1.4309352376e-25
0.0378762420632	-1.54427499014e-25
0.038043913574	-1.66219820135e-25
0.0382115862225	-1.78469865161e-25
0.0383792600176	-1.91177004695e-25
0.0385469349681	-2.04340649922e-25
0.0387146110831	-2.1796029183e-25
0.0388822883715	-2.32035531617e-25
0.0390499668425	-2.46566103507e-25
0.0392176465055	-2.61551889901e-25
0.0393853273695	-2.76992929841e-25
0.0395530094441	-2.92889421892e-25
0.0397206927386	-3.09241722034e-25
0.0398883772628	-3.26050336832e-25
0.0400000558429	-3.37498341293e-25
0.0400560630263	-3.43315913757e-25
0.0402237500079	-3.61039228905e-25
0.0403914382233	-3.79221173936e-25
0.0405591277076	-3.97862741931e-25
0.0407268184709	-4.16965010294e-25
0.0408945105236	-4.36529124829e-25
0.0410622038759	-4.56556287786e-25
0.0412298985381	-4.77047742179e-25
0.0413975945206	-4.98004759126e-25
0.041565291834	-5.19428627943e-25
0.041732990489	-5.41320646042e-25
0.0419006904963	-5.63682109691e-25
0.0420683918668	-5.86514308445e-25
0.0422360946114	-6.09818520147e-25
0.0424037987413	-6.33596006434e-25
0.0425715042675	-6.57848010137e-25
0.0427392112014	-6.82575754798e-25
0.0429069195542	-7.07780443915e-25
0.0430746293373	-7.33463260218e-25
0.0432423405625	-7.59625369437e-25
0.0434100532413	-7.86267918582e-25
0.0435777673858	-8.13392040816e-25
0.0437454829526	-8.40998852913e-25
0.0439132000082	-8.69089466821e-25
0.0440809185659	-8.97664984191e-25
0.044248638638	-9.26726499838e-25
0.0444163602372	-9.5627510529e-25
0.0445840833761	-9.86311889638e-25
0.0447518080674	-1.01683794219e-24
0.044919534324	-1.04785435392e-24
0.045000043487	-1.06291672788e-24
0.045087262159	-1.07936221749e-24
0.0452549915855	-1.11136262995e-24
0.0454227226168	-1.14385669261e-24
0.0455904552664	-1.17684551176e-24
0.0457581895479	-1.21033019893e-24
0.045925925475	-1.24431187142e-24
0.0460936630616	-1.27879165242e-24
0.0462614023219	-1.31377067122e-24
0.0464291432697	-1.34925006208e-24
0.0465968859196	-1.38523096539e-24
0.0467646302859	-1.42171452681e-24
0.0469323763833	-1.45870189726e-24
0.0471001242267	-1.49619423206e-24
0.0472678737963	-1.53419268911e-24
0.0474356251209	-1.57269843399e-24
0.0476033782371	-1.61171263691e-24
0.0477711331605	-1.65123647071e-24
0.047938889907	-1.69127111207e-24
0.0481066484926	-1.73181774054e-24
0.0482744089331	-1.77287754009e-24
0.048442171245	-1.81445169702e-24
0.0486099354447	-1.85654140228e-24
0.0487777015488	-1.89914784888e-24
0.0489454695742	-1.94227223476e-24
0.0491132395381	-1.98591576022e-24
0.0492810114577	-2.03007962991e-24
0.0494487853506	-2.07476505257e-24
0.0496165612342	-2.11997324068e-24
0.0497843391267	-2.16570541059e-24
0.0499521190459	-2.21196278352e-24
0.0500001044781	-2.22528914748e-24
0.0501199010102	-2.2587465848e-24
0.0502876850382	-2.30605804413e-24
0.0504554711486	-2.35389839677e-24
0.0506232593605	-2.40226888116e-24
0.0507910496933	-2.45117074212e-24
0.0509588421405	-2.50060522484e-24
0.0511266367177	-2.55057358289e-24
0.0512944334751	-2.60107707775e-24
0.0514622324329	-2.65211697296e-24
0.051630033612	-2.70369453637e-24
0.0517978370333	-2.75581104199e-24
0.0519656427177	-2.80846776849e-24
0.0521334506867	-2.86166599978e-24
0.0523012609618	-2.91540702444e-24
0.0524690735651	-2.96969214354e-24
0.0526368885188	-3.02452264962e-24
0.0528047058455	-3.07989985804e-24
0.0529725255681	-3.13582507796e-24
0.0531403477098	-3.19229963001e-24
0.0533081722939	-3.24932484419e-24
0.0534759993443	-3.30690204725e-24
0.0536438288851	-3.36503258025e-24
0.0538116609408	-3.42371778774e-24
0.0539794955362	-3.48295902545e-24
0.0541473326963	-3.54275764347e-24
0.0543151724467	-3.60311500931e-24
0.0544830148131	-3.66403249659e-24
0.0546508598218	-3.72551147274e-24
0.0548187074712	-3.7875533258e-24
0.0549865577896	-3.85015944088e-24
0.0550001537842	-3.85525528296e-24
0.0551544108316	-3.91333121739e-24
0.055322266625	-3.97707006111e-24
0.0554901251981	-4.04137738019e-24
0.0556579865797	-4.10625459471e-24
0.055825850799	-4.17170313044e-24
0.0559937178856	-4.23772442218e-24
0.0561615878694	-4.30431990722e-24
0.0563294607809	-4.37149104343e-24
0.0564973366508	-4.43923928616e-24
0.0566652155107	-4.5075661016e-24
0.0568330973925	-4.57647296551e-24
0.0570009823286	-4.64596136493e-24
0.057168870352	-4.71603278678e-24
0.0573367614959	-4.78668873561e-24
0.0575046557941	-4.85793071931e-24
0.0576725532815	-4.92976025059e-24
0.057840453993	-5.00217885493e-24
0.0580083579641	-5.07518806593e-24
0.0581762652309	-5.14878942317e-24
0.0583441758302	-5.22298447786e-24
0.0585120897994	-5.29777478994e-24
0.0586800071769	-5.37316192223e-24
0.0588479279583	-5.44914745497e-24
0.0590158522133	-5.52573297468e-24
0.0591837799943	-5.60292008456e-24
0.0593517113423	-5.68071039723e-24
0.0595196462989	-5.75910553378e-24
0.0596875849064	-5.83810712986e-24
0.0598555272076	-5.91771682991e-24
0.0600001285213	-5.98674923905e-24
0.0600234732459	-5.99793629557e-24
0.0601914230659	-6.07876719507e-24
0.0603593767131	-6.16021120759e-24
0.0605273342335	-6.24227003274e-24
0.0606952956739	-6.32494537396e-24
0.0608632610818	-6.40823894788e-24
0.0610312305061	-6.49215248116e-24
0.0611992039965	-6.57668771156e-24
0.0613671816034	-6.66184638827e-24
0.0615351633783	-6.74763026686e-24
0.0617031493733	-6.83404111447e-24
0.061871139642	-6.92108070393e-24
0.0620391342391	-7.00875081975e-24
0.0622071332198	-7.09705325821e-24
0.0623751366406	-7.18598981532e-24
0.0625431445593	-7.27556230488e-24
0.062711157035	-7.36577254646e-24
0.0628791741142	-7.45662237115e-24
0.0630471958302	-7.54811361561e-24
0.063215222287	-7.64024815447e-24
0.0633832535487	-7.7330278625e-24
0.0635512896809	-7.82645464018e-24
0.0637193307502	-7.92053041424e-24
0.0638873768242	-8.01525713779e-24
0.0640554279726	-8.11063679517e-24
0.0642234842667	-8.20667140926e-24
0.0643915457789	-8.30336304605e-24
0.0645596125831	-8.40071381539e-24
0.064727684755	-8.4987258648e-24
0.0648957623723	-8.59740140026e-24
0.0650001413483	-8.65901383804e-24
0.0650638455145	-8.69674266589e-24
0.0652319342622	-8.79675195506e-24
0.065400028698	-8.89743159389e-24
0.0655681289073	-8.99878394661e-24
0.0657362349769	-9.10081139558e-24
0.0659043469955	-9.20351632621e-24
0.0660724650537	-9.30690112518e-24
0.0662405892449	-9.41096815026e-24
0.0664087196646	-9.51571972214e-24
0.0665768564106	-9.62115808676e-24
0.0667449995825	-9.72728542072e-24
0.0669131492836	-9.83410378765e-24
0.0670813056193	-9.94161513251e-24
0.0672494686448	-1.00498212575e-23
0.0674176385207	-1.01587238343e-23
0.0675858153637	-1.026832438e-23
0.0677539992909	-1.03786242539e-23
0.0679221904219	-1.04896246781e-23
0.0680903888794	-1.06013267422e-23
0.0682585947903	-1.07137314417e-23
0.0684268082849	-1.08268397033e-23
0.0685950294961	-1.09406524252e-23
0.0687632585611	-1.10551705441e-23
0.0689314956217	-1.11703950818e-23
0.0690997408232	-1.1286327232e-23
0.0692679943146	-1.14029684094e-23
0.0694362562499	-1.15203203549e-23
0.0696045267882	-1.16383852112e-23
0.0697728060925	-1.1757165607e-23
0.0699410943308	-1.18766647398e-23
0.0700001656527	-1.19187800441e-23
0.0701093916768	-1.19968864674e-23
0.07027769831	-1.21178353917e-23
0.0704460144144	-1.22395169076e-23
0.0706143401803	-1.23619372965e-23
0.0707826758048	-1.24851037629e-23
0.0709510214914	-1.26090244799e-23
0.0711193774492	-1.27337086319e-23
0.0712877438958	-1.28591664174e-23
0.0714561210564	-1.29854090622e-23
0.0716245091129	-1.31124487951e-23
0.07179290835	-1.32402988559e-23
0.071961319023	-1.33689734308e-23
0.0721297413902	-1.34984876035e-23
0.0722981757186	-1.3628857307e-23
0.0724666222863	-1.37600992353e-23
0.0726350813823	-1.38922307859e-23
0.0728035533049	-1.40252699551e-23
0.0729720383649	-1.41592352567e-23
0.0731405368866	-1.42941456283e-23
0.0733090492059	-1.44300203471e-23
0.073477575672	-1.45668789249e-23
0.0736461166503	-1.47047410312e-23
0.0738146725212	-1.48436264155e-23
0.0739832436799	-1.49835548214e-23
0.0741518305405	-1.51245459342e-23
0.074320433536	-1.52666193189e-23
0.0744890531168	-1.54097943737e-23
0.0746576897551	-1.55540903055e-23
0.0748263439468	-1.56995260947e-23
0.0749950162089	-1.58461204888e-23
0.0750000766616	-1.58505364148e-23
0.0751637070842	-1.59938920024e-23
0.0753324171444	-1.61428589191e-23
0.0755011469881	-1.62930393151e-23
0.0756698972443	-1.64444510783e-23
0.0758386685779	-1.65971119472e-23
0.0760074616811	-1.67510395305e-23
0.0761762772478	-1.69062513472e-23
0.0763451161071	-1.70627649093e-23
0.0765139790825	-1.7220597721e-23
0.0766828670442	-1.73797673319e-23
0.0768517809182	-1.75402913795e-23
0.0770207216858	-1.77021876436e-23
0.0771896903878	-1.7865474068e-23
0.0773586881369	-1.80301688144e-23
0.0775277161165	-1.81962902912e-23
0.0776967755893	-1.83638571825e-23
0.0778658679108	-1.85328884926e-23
0.0780349945297	-1.8703403566e-23
0.0782041570025	-1.88754221287e-23
0.0783733570071	-1.90489643115e-23
0.0785425963491	-1.92240506819e-23
0.0787118769824	-1.94007022861e-23
0.0788812010247	-1.95789406678e-23
0.0790505707732	-1.97587879132e-23
0.0792199887349	-1.99402666892e-23
0.0793894576462	-2.01234002779e-23
0.0795589805047	-2.03082126147e-23
0.0797285606122	-2.04947283533e-23
0.079898201608	-2.06829728856e-23
0.0800000170916	-2.07967602955e-23
0.0800679075262	-2.08729724269e-23
0.0802376828613	-2.10647540601e-23
0.0804075326315	-2.12583458142e-23
0.080577462481	-2.14537767613e-23
0.0807474787526	-2.16510771155e-23
0.0809175887132	-2.18502784057e-23
0.0810878006882	-2.20514136765e-23
0.081258124252	-2.22545177128e-23
0.0814285705442	-2.24596274222e-23
0.0815991526539	-2.26667823264e-23
0.0817698861075	-2.28760252152e-23
0.0819407895816	-2.30874031364e-23
0.082111885834	-2.33009687161e-23
0.0822832030914	-2.35167821402e-23
0.0824547770507	-2.37349140654e-23
0.082626640514	-2.39554327652e-23
0.0827987315736	-2.41782845978e-23
0.0829710382242	-2.44034783488e-23
0.0831435627892	-2.46310411862e-23
0.0833163026893	-2.48609940014e-23
0.0834892499724	-2.50933507393e-23
0.0836623920391	-2.53281193296e-23
0.0838357136124	-2.55653044424e-23
0.0840091989141	-2.58049107126e-23
0.0841828328326	-2.60469447371e-23
0.0843566021865	-2.62914173291e-23
0.0845304962027	-2.65383447595e-23
0.0847045059339	-2.67877485091e-23
0.0848786240207	-2.7039655463e-23
0.0850000451335	-2.72167319872e-23
0.0850528443849	-2.7294097955e-23
0.0852271619899	-2.75511138431e-23
0.0854015726455	-2.78107465561e-23
0.0855760727766	-2.80730450899e-23
0.0857506402109	-2.83380346897e-23
0.0859252181525	-2.86056909512e-23
0.0860998034776	-2.88760743811e-23
0.086274396703	-2.91492557324e-23
0.0864489983325	-2.94253103511e-23
0.0866236091645	-2.97043185847e-23
0.0867982303391	-2.99863657191e-23
0.0869728629371	-3.0271541269e-23
0.0871475077521	-3.05599388909e-23
0.0873221654312	-3.08516565362e-23
0.0874968365114	-3.11467972492e-23
0.0876715214722	-3.14454696669e-23
0.0878462207788	-3.17477891618e-23
0.0880209348472	-3.20538788416e-23
0.0881956640455	-3.23638709779e-23
0.0883704086858	-3.26779085184e-23
0.0885451690456	-3.29961466891e-23
0.0887199453888	-3.33187546561e-23
0.0888947379601	-3.36459167991e-23
0.0890695469931	-3.39778338266e-23
0.0892443727049	-3.43147232423e-23
0.0894192153022	-3.46568190834e-23
0.0895940749873	-3.50043707334e-23
0.0897689519545	-3.53576407177e-23
0.0899438463881	-3.57169010276e-23
0.0900001661428	-3.58339034543e-23
0.0901187584677	-3.60824286043e-23
0.0902936883716	-3.64544990131e-23
0.0904686362158	-3.6833379245e-23
0.0906436022072	-3.72193195601e-23
0.0908185865007	-3.76125443414e-23
0.0909935892416	-3.80132430861e-23
0.0911686105719	-3.8421561427e-23
0.091343650638	-3.88375933777e-23
0.0915187095907	-3.92613753045e-23
0.0916937875762	-3.96928823329e-23
0.0918688847359	-4.0132028522e-23
0.0920440012071	-4.05786710805e-23
0.0922191371161	-4.10326199499e-23
0.0923942925877	-4.14936532276e-23
0.0925694677424	-4.19615388703e-23
0.0927446627036	-4.24360634061e-23
0.0929198775882	-4.29170670825e-23
