# Model    WH12
# Gamma1   1.3
# Gamma2   2.5
# Gammath  1.35
# alpha0   0.003
# beta0    -5
# 
# time [s] 		 h(t)
0.0	0.0
0.000167445587591	-1.02845026802e-32
0.000335248709989	-4.12258967217e-32
0.000503052040005	-9.28243056028e-32
0.000670855600317	-1.65079817207e-31
0.00083865941366	-2.57992530559e-31
0.00100646350201	-3.71562555554e-31
0.00117426788661	-5.05790013638e-31
0.00134207259279	-6.60675037832e-31
0.00150987764352	-8.36217772248e-31
0.00167768306181	-1.03241837265e-30
0.00184548887078	-1.24927700583e-30
0.00201329509356	-1.48679385064e-30
0.00218110175339	-1.7449690969e-30
0.00234890887357	-2.02380294591e-30
0.00251671647745	-2.32329561115e-30
0.00268452458849	-2.6434473175e-30
0.00285233323014	-2.98425830092e-30
0.00302014242585	-3.34572881113e-30
0.00318795219916	-3.727859102e-30
0.00335576257367	-4.1306494538e-30
0.00352357357304	-4.55410014346e-30
0.00369138522104	-4.99821146851e-30
0.0038591975415	-5.46298373229e-30
0.00402701055657	-5.94841725852e-30
0.00419482429066	-6.45451237384e-30
0.00436263876933	-6.9812694254e-30
0.00453045401683	-7.52868876621e-30
0.00469827005753	-8.09677076372e-30
0.00486608691592	-8.68551580284e-30
0.00500000537201	-9.17015831104e-30
0.00503390461664	-9.29492427441e-30
0.00520172318447	-9.92499658109e-30
0.00536954264433	-1.05757331458e-29
0.00553736302134	-1.12471344e-29
0.00570518434075	-1.19392007813e-29
0.00587300662804	-1.26519327564e-29
0.00604082990894	-1.33853307922e-29
0.00620865420957	-1.41393953724e-29
0.00637647955622	-1.49141270018e-29
0.00654430597528	-1.57095261909e-29
0.00671213349328	-1.65255934678e-29
0.00687996213687	-1.73623293717e-29
0.00704779193316	-1.82197344569e-29
0.00721562290729	-1.90978092952e-29
0.0073834550887	-1.999655447e-29
0.00755128850609	-2.09159705906e-29
0.00771912318767	-2.18560582667e-29
0.00788695916207	-2.28168181343e-29
0.0080547964581	-2.37982508379e-29
0.00822263510476	-2.48003570454e-29
0.00839047513121	-2.58231374334e-29
0.00855831656679	-2.68665926964e-29
0.00872615944127	-2.79307235429e-29
0.00889400378479	-2.9015530702e-29
0.00906184962773	-3.01210149065e-29
0.00922969700065	-3.12471769598e-29
0.0093975459343	-3.23940175952e-29
0.00956539645969	-3.35615376009e-29
0.00973324860838	-3.47497378498e-29
0.00990110241236	-3.59586191027e-29
0.0100001369462	-3.66815598181e-29
0.0100689579038	-3.71881822317e-29
0.0102368151153	-3.84384281443e-29
0.0104046740794	-3.97093576835e-29
0.0105725348278	-4.10009717561e-29
0.0107403973948	-4.2313271294e-29
0.0109082618157	-4.36462572591e-29
0.0110761281249	-4.49999305845e-29
0.0112439963574	-4.63742922644e-29
0.0114118665483	-4.77693433459e-29
0.0115797387335	-4.91850848232e-29
0.0117476129491	-5.06215177142e-29
0.0119154892318	-5.207864316e-29
0.0120833676189	-5.35564622085e-29
0.0122512481479	-5.50549759675e-29
0.012419130857	-5.65741856052e-29
0.0125870157849	-5.81140922591e-29
0.0127549029706	-5.96746970939e-29
0.0129227924539	-6.1256001367e-29
0.0130906842749	-6.28580062995e-29
0.0132585784743	-6.44807131477e-29
0.0134264750934	-6.6124123225e-29
0.0135943741743	-6.77882378706e-29
0.0137622757594	-6.94730583967e-29
0.0139301798918	-7.11785861779e-29
0.0140980866152	-7.29048226408e-29
0.014265995971	-7.46517691306e-29
0.0144339080073	-7.64194270189e-29
0.01460182277	-7.82077977322e-29
0.0147697403053	-8.00168826721e-29
0.0149376606606	-8.18466833244e-29
0.015000127762	-8.25326559783e-29
0.0151055838837	-8.36972012626e-29
0.0152735100232	-8.55684381749e-29
0.0154414391286	-8.74603959528e-29
0.0156093712501	-8.93730765751e-29
0.0157773064387	-9.1306482284e-29
0.0159452447462	-9.32606152979e-29
0.0161131862255	-9.52354778973e-29
0.0162811309302	-9.72310720727e-29
0.0164490789148	-9.92473994178e-29
0.0166170302348	-1.01284461033e-28
0.0167849849464	-1.03342257208e-28
0.0169529431072	-1.05420787612e-28
0.0171209047754	-1.0752005141e-28
0.0172888700106	-1.09640047526e-28
0.0174568388732	-1.11780775521e-28
0.017624811425	-1.13942236129e-28
0.0177927877286	-1.16124432413e-28
0.0179607678478	-1.18327370472e-28
0.0181287518449	-1.20551060294e-28
0.018296739789	-1.22795515897e-28
0.0184647317478	-1.2506075488e-28
0.01863272779	-1.2734679715e-28
0.018800727986	-1.29653662533e-28
0.0189687324073	-1.31981367628e-28
0.019136741127	-1.34329921481e-28
0.0193047542196	-1.3669932134e-28
0.019472771761	-1.39089548164e-28
0.0196407938289	-1.41500563266e-28
0.0198088205025	-1.43932306832e-28
0.0199768518625	-1.46384699225e-28
0.0200000405627	-1.467247456e-28
0.0201448879914	-1.48857645709e-28
0.0203129289737	-1.513510455e-28
0.0204809748955	-1.53864805236e-28
0.0206490258446	-1.5639885631e-28
0.0208170819112	-1.5895317521e-28
0.0209851431871	-1.61527805174e-28
0.0211532097663	-1.64122876657e-28
0.021321281745	-1.66738623322e-28
0.0214893592216	-1.69375390762e-28
0.0216574422968	-1.72033633596e-28
0.0218255310735	-1.74713898301e-28
0.0219936256573	-1.77416788843e-28
0.0221617261538	-1.80142914112e-28
0.0223298326751	-1.82892816998e-28
0.0224979453355	-1.85666887863e-28
0.0226660642511	-1.88465266703e-28
0.0228341895411	-1.91287741088e-28
0.0230023213275	-1.94133649342e-28
0.0231704597357	-1.9700179982e-28
0.0233386048942	-1.9989041911e-28
0.0235067569349	-2.02797142009e-28
0.0236749159933	-2.05719055977e-28
0.0238430822083	-2.08652810324e-28
0.024011255723	-2.11594798163e-28
0.0241794366842	-2.1454141411e-28
0.0243476252427	-2.17489385589e-28
0.0245158215539	-2.20436168854e-28
0.0246840257774	-2.23380394073e-28
0.0248522380775	-2.26322335894e-28
0.0250001034931	-2.28908248905e-28
0.0250204586234	-2.29264379869e-28
0.0251886875892	-2.32211448034e-28
0.0253569251544	-2.35171342491e-28
0.0255251715039	-2.3815496375e-28
0.0256934268283	-2.41176358694e-28
0.0258616913243	-2.44252557562e-28
0.0260299651948	-2.47403162866e-28
0.0261982486492	-2.50649663405e-28
0.0263665419039	-2.54014457506e-28
0.026534845179	-2.5751958468e-28
0.0267031587089	-2.6118518134e-28
0.0268714827322	-2.65027694735e-28
0.0270398174962	-2.69057909003e-28
0.0272081632567	-2.73278855662e-28
0.0273765202786	-2.77683699222e-28
0.0275448888364	-2.82253703954e-28
0.0277132692148	-2.86956400351e-28
0.0278816617089	-2.91744077656e-28
0.0280500666253	-2.96552732211e-28
0.0282184842821	-3.01301598421e-28
0.0283869150101	-3.05893382213e-28
0.0285553591531	-3.10215296903e-28
0.0287238170689	-3.14140990703e-28
0.0288922891301	-3.17533418732e-28
0.0290607757247	-3.20248685821e-28
0.0292292772576	-3.22140859289e-28
0.0293977941508	-3.23067701066e-28
0.0295663268455	-3.22897241915e-28
0.0297348758024	-3.21515082235e-28
0.0299034415034	-3.18832264767e-28
0.03000003739	-3.16685855329e-28
0.030072024453	-3.14793540231e-28
0.0302406251798	-3.09385819241e-28
0.0304092442381	-3.02646580527e-28
0.0305778822098	-2.94672003856e-28
0.0307465397061	-2.85624584461e-28
0.03091521737	-2.7573999174e-28
0.0310839158755	-2.65332953028e-28
0.0312526359385	-2.54801960355e-28
0.031421378312	-2.44632629555e-28
0.0315901437915	-2.35399575065e-28
0.031758933218	-2.27766705393e-28
0.0319277474824	-2.22485887975e-28
0.0320965875294	-2.20393978356e-28
0.0322654543622	-2.2240825552e-28
0.0324343490475	-2.295203502e-28
0.032603272722	-2.42788795311e-28
0.0327722266001	-2.63330366236e-28
0.032941211977	-2.92310409188e-28
0.0331102302377	-3.30932382996e-28
0.0332792828694	-3.8042685916e-28
0.0334483714697	-4.42040231285e-28
0.0336174977594	-5.17023390233e-28
0.0337866635952	-6.06620619339e-28
0.0339558709854	-7.12058943894e-28
0.0341251221077	-8.34538156744e-28
0.0342944193297	-9.75221719544e-28
0.0344637652323	-1.13522870107e-27
0.034633162638	-1.31562689467e-27
0.0348026146431	-1.51742721586e-27
0.0349721246566	-1.7415794493e-27
0.0350000996398	-1.78077524935e-27
0.0351416964452	-1.98896938163e-27
0.035311334188	-2.26041732615e-27
0.0354810425424	-2.55667801874e-27
0.0356508267234	-2.87844183456e-27
0.0358206926006	-3.22633726344e-27
0.0359906468189	-3.60093457264e-27
0.0361606969504	-4.00275055983e-27
0.0363308516813	-4.43225434265e-27
0.0365011210569	-4.88987410881e-27
0.0366715167927	-5.37600480756e-27
0.0368420526898	-5.89101680491e-27
0.0370127451881	-6.43526562621e-27
0.0371836141249	-7.00910305831e-27
0.0373546837878	-7.61289003695e-27
0.0375259844564	-8.24701238266e-27
0.0376975546933	-8.91190087905e-27
0.037869415355	-9.60793651425e-27
0.0380414998049	-1.0335139011e-26
0.0382138063181	-1.10937782092e-26
0.0383863367714	-1.18841487445e-26
0.0385590878924	-1.27065340214e-26
0.0387320510852	-1.3561203326e-26
0.0389052135372	-1.44484147479e-26
0.0390785603059	-1.53684239459e-26
0.0392520762036	-1.63214934764e-26
0.0394257469281	-1.730789932e-26
0.0395995605896	-1.83279406403e-26
0.0397735076636	-1.93819412074e-26
0.0399475805353	-2.04702479663e-26
0.0400000001561	-2.08046002908e-26
0.0401217731287	-2.15932294269e-26
0.0402960804523	-2.27512729698e-26
0.0404704982224	-2.39447820784e-26
0.0406450227011	-2.51741746555e-26
0.0408196506835	-2.64398822837e-26
0.0409943784769	-2.77423419071e-26
0.0411691604989	-2.90816726481e-26
0.0413439705302	-3.04581192282e-26
0.0415188092336	-3.18721324596e-26
0.041693677285	-3.33241712501e-26
0.0418685756013	-3.4814703977e-26
0.0420435051516	-3.63442067321e-26
0.0422184664774	-3.79131588046e-26
0.0423934598763	-3.95220436658e-26
0.0425684856227	-4.11713506255e-26
0.0427435440577	-4.28615756734e-26
0.0429186355445	-4.45932208744e-26
0.0430937603285	-4.63667929594e-26
0.0432689185752	-4.81828034741e-26
0.0434441104309	-5.00417693061e-26
0.0436193360414	-5.19442127109e-26
0.0437945955272	-5.3890660989e-26
0.0439698890219	-5.5881646784e-26
0.0441452166364	-5.79177077797e-26
0.0443205784677	-5.99993865346e-26
0.0444959745908	-6.21272306204e-26
0.0446714050574	-6.43017925593e-26
0.0448468699197	-6.65236302956e-26
0.0450000788876	-6.85023864537e-26
0.045022369205	-6.87933070121e-26
0.0451979028966	-7.11113911905e-26
0.0453734709836	-7.34784574834e-26
0.0455490734354	-7.58950867354e-26
0.0457247102367	-7.83618668753e-26
0.0459003813657	-8.08793928948e-26
0.0460760867988	-8.34482673872e-26
0.0462518264876	-8.6069100458e-26
0.0464276004037	-8.8742510544e-26
0.0466034084729	-9.14691237769e-26
0.0467792506142	-9.4249574593e-26
0.0469551267426	-9.70845057148e-26
0.0471310367537	-9.99745678851e-26
0.0473069805311	-1.02920419789e-25
0.0474829579098	-1.05922727232e-25
0.0476589687518	-1.0898216403e-25
0.0478350129278	-1.12099411524e-25
0.0480110902716	-1.152751574e-25
0.0481872006019	-1.18510095861e-25
0.0483633437211	-1.21804927235e-25
0.0485395194122	-1.25160357952e-25
0.0487157274567	-1.28577100744e-25
0.0488919676463	-1.32055875011e-25
0.0490682397195	-1.355974058e-25
0.0492445434585	-1.39202426192e-25
0.0494208786056	-1.42871676072e-25
0.0495972449099	-1.46605903751e-25
0.0497736421058	-1.50405866236e-25
0.0499500698932	-1.54272329681e-25
0.0500000044791	-1.55378718978e-25
0.050126527999	-1.5820607147e-25
0.050303016106	-1.62207879505e-25
0.0504795339402	-1.66278555042e-25
0.0506560811673	-1.70418911152e-25
0.0508326574839	-1.74629775226e-25
0.0510092625401	-1.7891198785e-25
0.051185896032	-1.83266405345e-25
0.0513625575959	-1.87693897265e-25
0.0515392468951	-1.92195348595e-25
0.0517159635635	-1.96771658124e-25
0.0518927072702	-2.01423739764e-25
0.0520694776453	-2.06152519989e-25
0.0522462743449	-2.10958939034e-25
0.0524230970028	-2.15843948894e-25
0.0525999452507	-2.20808512826e-25
0.0527768186979	-2.25853604152e-25
0.0529537170341	-2.30980208188e-25
0.0531306398402	-2.36189315945e-25
0.0533075867837	-2.4148192914e-25
0.0534845574923	-2.46859055534e-25
0.0536615516106	-2.52321710143e-25
0.0538385687677	-2.57870913467e-25
0.0540156086083	-2.63507692036e-25
0.054192670777	-2.69233077298e-25
0.0543697549095	-2.75048105157e-25
0.0545468606227	-2.80953814856e-25
0.0547239876166	-2.86951252359e-25
0.0549011355001	-2.93041463806e-25
0.0550001701457	-2.96486708045e-25
0.0550783039458	-2.99225500659e-25
0.0552554926277	-3.05504417092e-25
0.0554327011794	-3.11879266996e-25
0.0556099292922	-3.18351109021e-25
0.055787176635	-3.24921001241e-25
0.0559644428831	-3.31590002041e-25
0.0561417277129	-3.38359170704e-25
0.0563190307992	-3.45229564174e-25
0.0564963518482	-3.52202240343e-25
0.0566736905526	-3.59278254163e-25
0.0568510465997	-3.6645865883e-25
0.0570284196938	-3.73744505256e-25
0.0572058095397	-3.8113684314e-25
0.0573832158466	-3.88636719585e-25
0.0575606383404	-3.96245181339e-25
0.0577380767263	-4.03963273658e-25
0.0579155307504	-4.11792042994e-25
0.0580930001215	-4.19732536542e-25
0.0582704845689	-4.27785804403e-25
0.0584479838413	-4.35952900988e-25
0.05862549766	-4.44234886749e-25
0.0588030257756	-4.52632829098e-25
0.058980567939	-4.61147805294e-25
0.059158123895	-4.69780902993e-25
0.0593356933964	-4.78533221521e-25
0.0595132762085	-4.87405874942e-25
0.0596908720993	-4.96399991384e-25
0.0598684808388	-5.05516714589e-25
0.0600000970772	-5.12351976419e-25
0.060046102214	-5.14757205517e-25
0.0602237360054	-5.24122641168e-25
0.0604013819687	-5.33614213714e-25
0.0605790398959	-5.43233133352e-25
0.0607567095916	-5.52980627303e-25
0.060934390851	-5.62857938182e-25
0.0611120834912	-5.72866323558e-25
0.0612897873023	-5.83007055008e-25
0.0614675020875	-5.93281416412e-25
0.0616452276676	-6.03690706542e-25
0.0618229638705	-6.14236235283e-25
0.0620007104878	-6.24919321881e-25
0.0621784673231	-6.35741296657e-25
0.0623562342268	-6.46703503943e-25
0.06253401106	-6.57807298635e-25
0.0627117976238	-6.69054042813e-25
0.0628895937549	-6.80445112274e-25
0.0630673992957	-6.91981895371e-25
0.0632452140855	-7.03665793482e-25
0.0634230379756	-7.1549822194e-25
0.0636008708325	-7.27480613893e-25
0.0637787124756	-7.39614415182e-25
0.0639565627612	-7.51901091772e-25
0.0641344215738	-7.64342131716e-25
0.0643122887654	-7.76939039971e-25
0.0644901641892	-7.89693344164e-25
0.064668047715	-8.02606594092e-25
0.0648459392163	-8.1568036314e-25
0.0650001775003	-8.27146469077e-25
0.0650238385607	-8.28916246268e-25
0.0652017456175	-8.4231586262e-25
0.0653796602635	-8.55880854407e-25
0.0655575823702	-8.6961288487e-25
0.0657355118191	-8.83513641161e-25
0.0659134485102	-8.97584832355e-25
0.0660913923093	-9.11828184735e-25
0.06626934311	-9.26245447115e-25
0.0664473007951	-9.40838385525e-25
0.066625265245	-9.55608783824e-25
0.0668032363648	-9.7055844483e-25
0.0669812140379	-9.85689186851e-25
0.0671591981411	-1.00100284455e-24
0.0673371885944	-1.01650127264e-24
0.0675151852929	-1.03218634108e-24
0.0676931881207	-1.04805993692e-24
0.0678711969802	-1.06412396765e-24
0.0680492117793	-1.08038036077e-24
0.0682272324196	-1.09683106508e-24
0.0684052587957	-1.11347805118e-24
0.068583290828	-1.13032331754e-24
0.0687613284117	-1.14736888565e-24
0.068939371461	-1.16461680756e-24
0.0691174198843	-1.18206916409e-24
0.0692954735978	-1.19972806841e-24
0.0694735325054	-1.21759566482e-24
0.0696515965281	-1.23567413345e-24
0.0698296655798	-1.25396568851e-24
0.0700000822863	-1.27167232106e-24
0.0700077395684	-1.27247257865e-24
0.0701858184205	-1.29119708974e-24
0.0703639020549	-1.31014154303e-24
0.0705419903896	-1.32930829501e-24
0.0707200833399	-1.34869973753e-24
0.0708981808313	-1.36831829741e-24
0.0710762827868	-1.38816643564e-24
0.0712543891386	-1.40824664736e-24
0.0714324998033	-1.42856145806e-24
0.071610614709	-1.44911342682e-24
0.0717887337754	-1.46990514247e-24
0.0719668569357	-1.49093922736e-24
0.0721449841149	-1.51221833276e-24
0.0723231152449	-1.53374514201e-24
0.0725012502566	-1.55552237077e-24
0.0726793890793	-1.57755276618e-24
0.0728575316478	-1.59983911e-24
0.0730356778893	-1.62238421868e-24
0.0732138277399	-1.64519094622e-24
0.0733919811279	-1.66826218468e-24
0.0735701379852	-1.69160086867e-24
0.0737482982497	-1.71520997615e-24
0.0739264618598	-1.73909253188e-24
0.0741046287487	-1.76325160871e-24
0.074282798853	-1.78769033069e-24
0.0744609721088	-1.81241187487e-24
0.0746391484592	-1.83741947508e-24
0.0748173278397	-1.86271642047e-24
0.0749955101897	-1.88830606084e-24
0.0750001429699	-1.88897532615e-24
0.0751736954433	-1.91419180419e-24
0.0753518835357	-1.94037712094e-24
0.0755300744132	-1.96686554447e-24
0.0757082680226	-1.99366067138e-24
0.0758864643055	-2.02076616099e-24
0.0760646632038	-2.04818573647e-24
0.0762428646583	-2.07592318426e-24
0.0764210686067	-2.10398235519e-24
0.0765992749857	-2.13236716519e-24
0.0767774837402	-2.16108159572e-24
0.0769556948124	-2.19012969531e-24
0.0771339081491	-2.21951558036e-24
0.0773121236997	-2.24924343583e-24
0.0774903414007	-2.27931751564e-24
0.0776685611901	-2.30974214576e-24
0.0778467830066	-2.34052172722e-24
0.0780250067917	-2.37166073744e-24
0.0782032324864	-2.40316373332e-24
0.07838146003	-2.43503535388e-24
0.0785596893631	-2.46728032296e-24
0.0787379204164	-2.49990344963e-24
0.0789161531176	-2.53290963281e-24
0.0790943873797	-2.56630386157e-24
0.0792726231045	-2.60009121717e-24
0.0794508601883	-2.63427687718e-24
0.07962909852	-2.66886611741e-24
0.0798073379764	-2.70386431327e-24
0.0799855784308	-2.73927694523e-24
0.0800000159473	-2.74216368151e-24
0.0801638197505	-2.77510960208e-24
0.0803420617983	-2.81136798758e-24
0.0805203044293	-2.84805792664e-24
0.0806985474915	-2.88518537747e-24
0.0808767908346	-2.92275644659e-24
0.0810550343107	-2.96077739932e-24
0.0812332777756	-2.99925468683e-24
0.0814115210901	-3.03819496548e-24
0.0815897641247	-3.07760510847e-24
0.0817680067628	-3.11749224014e-24
0.0819462488988	-3.15786373764e-24
0.0821244904443	-3.19872723795e-24
0.082302731335	-3.24009064937e-24
0.0824809715291	-3.28196212313e-24
0.0826592109887	-3.32435002171e-24
0.0828374496674	-3.36726285816e-24
0.083015687516	-3.41070925883e-24
0.0831939244977	-3.4546978728e-24
0.0833721605913	-3.49923730564e-24
0.0835503957883	-3.54433604778e-24
0.0837286300927	-3.59000242581e-24
0.0839068635193	-3.63624455877e-24
0.0840850960747	-3.68307039052e-24
0.0842633277499	-3.73048773583e-24
0.0844415585253	-3.77850441895e-24
0.0846197883827	-3.82712845268e-24
0.0847980173107	-3.87636829262e-24
0.0849762453013	-3.92623311106e-24
0.0850001277803	-3.93296301864e-24
0.0851544723435	-3.97673308222e-24
0.0853326984241	-4.0278796607e-24
0.0855109235309	-4.07968577196e-24
0.0856891476471	-4.13216589844e-24
0.0858673707489	-4.18533598667e-24
0.0860455928177	-4.23921314388e-24
0.0862238138425	-4.29381506406e-24
0.0864020338052	-4.34915921073e-24
0.0865802526805	-4.40526172689e-24
0.0867584704343	-4.46213615384e-24
0.0869366870264	-4.51979203009e-24
0.0871149024125	-4.57823351569e-24
0.0872931165428	-4.63745820518e-24
0.0874713293615	-4.69745633255e-24
0.0876495408065	-4.75821060083e-24
0.0878277508044	-4.81969688109e-24
0.0880059592685	-4.88188595673e-24
0.0881841660966	-4.94474654299e-24
0.0883623711843	-5.00824963568e-24
0.0885405744252	-5.07237421583e-24
0.088718775708	-5.13711419233e-24
0.0888969749254	-5.20248629749e-24
0.0890751719542	-5.26853855453e-24
0.0892533665724	-5.33535867013e-24
0.0894315584781	-5.40308174233e-24
0.0896097475307	-5.47189647471e-24
0.089787933604	-5.54204875689e-24
0.0899661166224	-5.61384188983e-24
0.0900001492306	-5.62776981903e-24
0.0901442965659	-5.68763249627e-24
0.0903224733266	-5.76382130252e-24
0.090500646778	-5.84283835836e-24
0.0906788168625	-5.92512241477e-24
0.0908569835078	-6.01109439895e-24
0.0910351466051	-6.10112569352e-24
0.0912133061187	-6.19550218489e-24
0.0913914621851	-6.29438558615e-24
0.0915696148988	-6.39777377379e-24
0.0917477642959	-6.50546284056e-24
0.0919259104836	-6.61701359055e-24
0.0921040534643	-6.73172523893e-24
0.0922821932668	-6.84861973102e-24
0.0924603300144	-6.96643956676e-24
0.0926384637472	-7.0836616638e-24
0.0928165944958	-7.19852998413e-24
0.092994722286	-7.30910830825e-24
0.0931728472104	-7.41335410845e-24
0.0933509693889	-7.50921325515e-24
0.0935290888894	-7.59473438112e-24
0.0937072057792	-7.668200631e-24
0.0938853200992	-7.72827512791e-24
0.0940634318823	-7.77415557876e-24
0.0942415412097	-7.80573238429e-24
0.0944196481301	-7.82374375477e-24
0.0945977526838	-7.82992094243e-24
0.0947758549161	-7.82711620095e-24
0.0949539549107	-7.81940623904e-24
0.095000082456	-7.81723910799e-24
0.0951320527486	-7.81216431063e-24
0.0953101484479	-7.8120946958e-24
0.0954882420309	-7.82722447748e-24
0.0956663335451	-7.86684881803e-24
