# Model    WH12
# Gamma1   1.3
# Gamma2   2.5
# Gammath  1.35
# alpha0   0.003
# beta0    0.0
# 
# time [s] 		 h(t)
0.0	0.0
0.000167445587591	-1.02845026802e-32
0.000335248709989	-4.12258967217e-32
0.000503052040005	-9.28243056028e-32
0.000670855600317	-1.65079817207e-31
0.00083865941366	-2.57992530559e-31
0.00100646350201	-3.71562555554e-31
0.00117426788661	-5.05790013638e-31
0.00134207259279	-6.60675037832e-31
0.00150987764352	-8.36217772248e-31
0.00167768306181	-1.03241837265e-30
0.00184548887077	-1.24927700583e-30
0.00201329509356	-1.48679385064e-30
0.00218110175339	-1.7449690969e-30
0.00234890887356	-2.02380294591e-30
0.00251671647745	-2.32329561115e-30
0.00268452458849	-2.6434473175e-30
0.00285233323013	-2.98425830092e-30
0.00302014242585	-3.34572881113e-30
0.00318795219916	-3.727859102e-30
0.00335576257366	-4.1306494538e-30
0.00352357357303	-4.55410014346e-30
0.00369138522102	-4.9982114685e-30
0.00385919754149	-5.46298373229e-30
0.00402701055655	-5.94841725852e-30
0.00419482429064	-6.45451237384e-30
0.0043626387693	-6.9812694254e-30
0.0045304540168	-7.52868876634e-30
0.00469827005749	-8.0967707637e-30
0.00486608691588	-8.6855158028e-30
0.00500000537196	-9.17015831102e-30
0.00503390461659	-9.29492427447e-30
0.00520172318441	-9.92499658109e-30
0.00536954264427	-1.05757331458e-29
0.00553736302127	-1.12471343969e-29
0.00570518434068	-1.19392007813e-29
0.00587300662796	-1.26519327565e-29
0.00604082990885	-1.3385330792e-29
0.00620865420947	-1.41393953724e-29
0.0063764795561	-1.49141270018e-29
0.00654430597515	-1.57095261911e-29
0.00671213349314	-1.65255934677e-29
0.00687996213671	-1.73623293717e-29
0.00704779193299	-1.8219734457e-29
0.0072156229071	-1.90978092923e-29
0.0073834550885	-1.99965544699e-29
0.00755128850587	-2.09159705876e-29
0.00771912318743	-2.18560582638e-29
0.00788695916181	-2.28168181314e-29
0.00805479645782	-2.37982508379e-29
0.00822263510445	-2.48003570455e-29
0.00839047513088	-2.58231374305e-29
0.00855831656644	-2.68665926935e-29
0.00872615944089	-2.79307235399e-29
0.00889400378438	-2.90155306991e-29
0.00906184962729	-3.01210149051e-29
0.00922969700018	-3.12471769603e-29
0.0093975459338	-3.23940175952e-29
0.00956539645916	-3.35615376006e-29
0.00973324860782	-3.47497378209e-29
0.00990110241176	-3.59586191028e-29
0.0100001369455	-3.66815598192e-29
0.0100689579032	-3.71881822317e-29
0.0102368151146	-3.84384281443e-29
0.0104046740787	-3.97093576553e-29
0.010572534827	-4.10009717559e-29
0.010740397394	-4.2313271294e-29
0.0109082618148	-4.36462572284e-29
0.011076128124	-4.49999305559e-29
0.0112439963564	-4.63742922642e-29
0.0114118665473	-4.77693433459e-29
0.0115797387324	-4.9185084794e-29
0.011747612948	-5.06215177158e-29
0.0119154892306	-5.20786431325e-29
0.0120833676176	-5.3556462179e-29
0.0122512481466	-5.50549759393e-29
0.0124191308556	-5.65741855775e-29
0.0125870157834	-5.81140922306e-29
0.0127549029691	-5.96746970948e-29
0.0129227924523	-6.12560013653e-29
0.0130906842732	-6.28580062994e-29
0.0132585784725	-6.44807131476e-29
0.0134264750916	-6.61241232234e-29
0.0135943741724	-6.778823784e-29
0.0137622757574	-6.94730583676e-29
0.0139301798897	-7.11785861778e-29
0.014098086613	-7.29048226116e-29
0.0142659959687	-7.46517691014e-29
0.0144339080049	-7.64194269897e-29
0.0146018227674	-7.82077977017e-29
0.0147697403027	-8.00168826415e-29
0.0149376606579	-8.18466832953e-29
0.0150001277593	-8.25326559488e-29
0.0151055838809	-8.36972012352e-29
0.0152735100203	-8.55684381469e-29
0.0154414391255	-8.74603958947e-29
0.0156093712469	-8.93730765164e-29
0.0157773064353	-9.1306482227e-29
0.0159452447427	-9.32606152688e-29
0.0161131862219	-9.52354778373e-29
0.0162811309264	-9.72310720143e-29
0.0164490789109	-9.92473993596e-29
0.0166170302307	-1.01284460975e-28
0.0167849849422	-1.03342257149e-28
0.0169529431028	-1.05420787552e-28
0.0171209047708	-1.07520051324e-28
0.0172888700058	-1.09640047467e-28
0.0174568388683	-1.11780775435e-28
0.0176248114198	-1.13942236072e-28
0.0177927877233	-1.16124432325e-28
0.0179607678423	-1.18327370384e-28
0.0181287518392	-1.20551060206e-28
0.0182967397831	-1.22795515809e-28
0.0184647317417	-1.25060754792e-28
0.0186327277837	-1.27346797033e-28
0.0188007279794	-1.29653662446e-28
0.0189687324005	-1.31981367512e-28
0.01913674112	-1.34329921365e-28
0.0193047542123	-1.36699321222e-28
0.0194727717535	-1.39089548047e-28
0.0196407938211	-1.41500563121e-28
0.0198088204944	-1.43932306715e-28
0.0199768518541	-1.46384699108e-28
0.0200000405543	-1.46724745455e-28
0.0201448879828	-1.48857645563e-28
0.0203129289648	-1.51351045355e-28
0.0204809748862	-1.53864805089e-28
0.020649025835	-1.56398856135e-28
0.0208170819012	-1.58953175035e-28
0.0209851431768	-1.61527804999e-28
0.0211532097557	-1.64122876453e-28
0.0213212817341	-1.66738623117e-28
0.0214893592103	-1.69375390558e-28
0.0216574422851	-1.72033633393e-28
0.0218255310614	-1.74713898068e-28
0.0219936256448	-1.77416788611e-28
0.0221617261408	-1.80142913879e-28
0.0223298326618	-1.82892816764e-28
0.0224979453217	-1.85666887601e-28
0.0226660642369	-1.88465266411e-28
0.0228341895264	-1.91287740797e-28
0.0230023213124	-1.9413364905e-28
0.0231704597201	-1.9700179953e-28
0.0233386048781	-1.99890418789e-28
0.0235067569182	-2.02797141687e-28
0.023674915976	-2.05719055655e-28
0.0238430821905	-2.08652809974e-28
0.0240112557047	-2.11594797814e-28
0.0241794366652	-2.14541413731e-28
0.0243476252232	-2.17489385209e-28
0.0245158215337	-2.20436168474e-28
0.0246840257566	-2.23380393663e-28
0.024852238056	-2.26322335457e-28
0.025000103471	-2.28908248468e-28
0.0250204586012	-2.29264379431e-28
0.0251886875663	-2.32211447567e-28
0.0253569251308	-2.35171342025e-28
0.0255251714795	-2.38154963255e-28
0.0256934268031	-2.41176358169e-28
0.0258616912983	-2.44252557037e-28
0.026029965168	-2.47403162313e-28
0.0261982486215	-2.50649662794e-28
0.0263665418753	-2.54014456864e-28
0.0265348451496	-2.5751958401e-28
0.0267031586784	-2.61185180613e-28
0.0268714827008	-2.65027693948e-28
0.0270398174638	-2.69057908159e-28
0.0272081632232	-2.73278854731e-28
0.0273765202441	-2.77683698231e-28
0.0275448888008	-2.82253702934e-28
0.027713269178	-2.86956399273e-28
0.0278816616709	-2.91744076491e-28
0.028050066586	-2.96552731044e-28
0.0282184842415	-3.01301597255e-28
0.0283869149682	-3.05893380741e-28
0.0285553591098	-3.10215295724e-28
0.0287238170242	-3.14140989819e-28
0.0288922890838	-3.17533417557e-28
0.0290607756769	-3.20248684928e-28
0.0292292772082	-3.221408587e-28
0.0293977940998	-3.23067700774e-28
0.0295663267927	-3.228972419e-28
0.0297348757478	-3.21515082512e-28
0.0299034414469	-3.18832265322e-28
0.0300000373325	-3.16685856484e-28
0.0300720243946	-3.14793541664e-28
0.0302406251194	-3.09385820952e-28
0.0304092441756	-3.02646582849e-28
0.0305778821451	-2.94672006744e-28
0.0307465396391	-2.85624587826e-28
0.0309152173006	-2.75739995551e-28
0.0310839158036	-2.65332957163e-28
0.0312526358639	-2.54801964704e-28
0.0314213782348	-2.44632633885e-28
0.0315901437114	-2.35399579086e-28
0.0317589331349	-2.27766708788e-28
0.0319277473962	-2.22485890308e-28
0.0320965874399	-2.20393979137e-28
0.0322654542692	-2.22408254138e-28
0.0324343489509	-2.29520345871e-28
0.0326032726216	-2.42788787224e-28
0.0327722264956	-2.63330353405e-28
0.0329412118683	-2.92310390479e-28
0.0331102301246	-3.30932357047e-28
0.0332792827514	-3.80426824779e-28
0.0334483713468	-4.42040186457e-28
0.0336174976312	-5.17023333226e-28
0.0337866634614	-6.06620548408e-28
0.0339558708456	-7.12058856399e-28
0.0341251219616	-8.34538050365e-28
0.0342944191767	-9.75221591376e-28
0.0344637650721	-1.13522854792e-27
0.03463316247	-1.31562671304e-27
0.0348026144669	-1.51742700193e-27
0.0349721244714	-1.74157919845e-27
0.035000099453	-1.78077499209e-27
0.0351416962503	-1.98896908919e-27
0.0353113339827	-2.26041698716e-27
0.0354810423257	-2.55667762682e-27
0.0356508264944	-2.8784413824e-27
0.035820692358	-3.22633674601e-27
0.0359906465616	-3.60093397678e-27
0.0361606966768	-4.00274987664e-27
0.0363308513897	-4.43225356052e-27
0.0365011207451	-4.88987321607e-27
0.0366715164584	-5.37600378676e-27
0.03684205233	-5.8910156386e-27
0.0370127447994	-6.435264291e-27
0.0371836137029	-7.00910152805e-27
0.0373546833272	-7.61288827664e-27
0.0375259839502	-8.24701035165e-27
0.0376975541327	-8.91189852194e-27
0.0378694147484	-9.60793384269e-27
0.03804149916	-1.03351360367e-26
0.0382138056343	-1.10937749143e-26
0.0383863360491	-1.18841451119e-26
0.038559087133	-1.27065300391e-26
0.0387320502912	-1.35611989857e-26
0.0389052127116	-1.44484100463e-26
0.039078559452	-1.53684188862e-26
0.0392520753246	-1.63214880556e-26
0.0394257460267	-1.73078935381e-26
0.0395995596679	-1.83279344914e-26
0.0397735067232	-1.93819346887e-26
0.0399475795775	-2.04702410659e-26
0.0400001733627	-2.08057093261e-26
0.0401217721543	-2.15932221334e-26
0.0402960794622	-2.27512652716e-26
0.0404704972171	-2.39447739637e-26
0.0406450216812	-2.51741661099e-26
0.0408196496492	-2.64398732895e-26
0.0409943774293	-2.77423324527e-26
0.04116915944	-2.90816627304e-26
0.0413439694583	-3.04581088041e-26
0.0415188081469	-3.18721215118e-26
0.0416936761818	-3.33241597481e-26
0.0418685744798	-3.48146918633e-26
0.0420435040093	-3.63441939484e-26
0.042218465314	-3.79131453236e-26
0.0423934586891	-3.95220294561e-26
0.0425684844104	-4.11713356285e-26
0.042743542818	-4.2861559832e-26
0.0429186342768	-4.45932041599e-26
0.043093759032	-4.63667753122e-26
0.043268917248	-4.81827848374e-26
0.0434441090714	-5.00417496216e-26
0.0436193346464	-5.19441918886e-26
0.0437945940965	-5.38906390041e-26
0.0439698875546	-5.58816235744e-26
0.0441452151303	-5.79176832309e-26
0.0443205769209	-5.99993606167e-26
0.0444959730008	-6.21272032168e-26
0.0446714034232	-6.43017636409e-26
0.0448468682428	-6.65235997766e-26
0.0450000771742	-6.85023545355e-26
0.0450223674866	-6.87932748623e-26
0.0451979011287	-7.11113572627e-26
0.0453734691653	-7.34784216605e-26
0.0455490715693	-7.58950490222e-26
0.0457247083158	-7.83618270634e-26
0.04590037939	-8.08793509275e-26
0.0460760847607	-8.34482230311e-26
0.0462518243903	-8.60690536842e-26
0.0464275982423	-8.87424612075e-26
0.0466034062517	-9.14690718472e-26
0.0467792483289	-9.42495199264e-26
0.0469551243905	-9.70844481348e-26
0.0471310343307	-9.99745072174e-26
0.0473069780383	-1.02920355944e-25
0.0474829553457	-1.05922660067e-25
0.0476589661145	-1.08982093399e-25
0.0478350102129	-1.12099337222e-25
0.0480110874751	-1.15275079254e-25
0.0481871977284	-1.1851001378e-25
0.0483633407754	-1.21804841193e-25
0.0485395163847	-1.25160267658e-25
0.0487157243541	-1.28577006138e-25
0.048891964459	-1.32055775743e-25
0.0490682364468	-1.35597301725e-25
0.0492445401095	-1.3920231734e-25
0.0494208751733	-1.42871562121e-25
0.0495972413927	-1.46605784499e-25
0.0497736385034	-1.50405741534e-25
0.0499500661979	-1.54272199155e-25
0.0500000007609	-1.5537858682e-25
0.0501265242209	-1.58205935117e-25
0.0503030122403	-1.62207737063e-25
0.0504795299818	-1.66278406219e-25
0.0506560771153	-1.70418755659e-25
0.0508326533386	-1.74629612886e-25
0.0510092583018	-1.78911818431e-25
0.0511858916902	-1.8326622838e-25
0.0513625531398	-1.87693712229e-25
0.0515392423376	-1.92195155578e-25
0.0517159589059	-1.96771456921e-25
0.0518927025069	-2.01423529937e-25
0.0520694727759	-2.06152301246e-25
0.052246269365	-2.10958711027e-25
0.0524230919092	-2.15843711186e-25
0.05259994005	-2.20808265329e-25
0.0527768134025	-2.25853346923e-25
0.0529537116288	-2.30979940471e-25
0.0531306343238	-2.36189037389e-25
0.0533075811595	-2.41481639515e-25
0.0534845517548	-2.46858754341e-25
0.0536615457445	-2.52321396511e-25
0.0538385627786	-2.57870587248e-25
0.0540156024912	-2.63507352648e-25
0.0541926645382	-2.69232724597e-25
0.0543697485483	-2.75047738674e-25
0.054546854145	-2.80953434418e-25
0.054723981001	-2.86950856797e-25
0.0549011287532	-2.93041053031e-25
0.0550001633246	-2.96486288541e-25
0.0550782970657	-2.99225073882e-25
0.0552554856101	-3.05503973682e-25
0.0554326940191	-3.11878806686e-25
0.0556099219908	-3.18350630943e-25
0.0557871691925	-3.24920505105e-25
0.055964435304	-3.3158948755e-25
0.0561417199974	-3.38358637265e-25
0.0563190229407	-3.45229010941e-25
0.0564963438479	-3.52201666708e-25
0.0566736824028	-3.59277659547e-25
0.0568510382901	-3.66458041777e-25
0.0570284112173	-3.73743865478e-25
0.0572058009063	-3.81136179775e-25
0.0573832070525	-3.88636032019e-25
0.0575606293827	-3.96244468994e-25
0.0577380676092	-4.03962535701e-25
0.0579155214672	-4.11791278802e-25
0.0580929906726	-4.19731745254e-25
0.0582704749593	-4.27784985136e-25
0.0584479740576	-4.35952052883e-25
0.058625487714	-4.44234008924e-25
0.0588030156665	-4.52631921276e-25
0.0589805576716	-4.61146866857e-25
0.0591581134607	-4.69779932514e-25
0.0593356827943	-4.78532218111e-25
0.0595132654405	-4.87404837753e-25
0.0596908611683	-4.96398919798e-25
0.0598684697436	-5.0551560775e-25
0.060000085851	-5.12350842181e-25
0.0600460909402	-5.14756061684e-25
0.0602237245532	-5.24121459166e-25
0.0604013703461	-5.33612992944e-25
0.0605790281007	-5.43231872675e-25
0.060756697617	-5.52979325234e-25
0.0609343787054	-5.62856594166e-25
0.0611120711639	-5.72864936116e-25
0.0612897747989	-5.83005622698e-25
0.0614674893985	-5.93279938078e-25
0.0616452147915	-6.03689180715e-25
0.0618229508024	-6.14234660509e-25
0.0620006972308	-6.24917696975e-25
0.062178453882	-6.35739620761e-25
0.0623562205948	-6.46701775041e-25
0.062533997233	-6.57805514938e-25
0.0627117836054	-6.69052203452e-25
0.0628895795322	-6.80443214946e-25
0.0630673848741	-6.91979939177e-25
0.0632451994682	-7.03663776384e-25
0.0634230231625	-7.15496143087e-25
0.0636008558172	-7.2747847093e-25
0.0637786972655	-7.39612206948e-25
0.0639565473529	-7.51898816521e-25
0.0641344059651	-7.64339787416e-25
0.0643122729583	-7.76936625431e-25
0.0644901481822	-7.89690856794e-25
0.0646680315058	-8.02604032428e-25
0.0648459228102	-8.15677725135e-25
0.0650001609221	-8.27143763745e-25
0.0650238219547	-8.28913530452e-25
0.0652017288048	-8.42313066095e-25
0.0653796432475	-8.5587797513e-25
0.0655575651503	-8.69609921099e-25
0.0657354943936	-8.8351059055e-25
0.0659134308775	-8.97581692594e-25
0.0660913744696	-9.11824953489e-25
0.0662693250575	-9.26242121743e-25
0.0664472825322	-9.4083496371e-25
0.0666252467726	-9.55605263224e-25
0.0668032176743	-9.70554822258e-25
0.0669811951307	-9.85685459967e-25
0.0671591790245	-1.0009990113e-24
0.06733716926	-1.01649732956e-24
0.0675151657416	-1.03218228552e-24
0.0676931683547	-1.04805576656e-24
0.0678711769927	-1.06411967839e-24
0.0680491915719	-1.08037595031e-24
0.0682272119936	-1.09682653022e-24
0.0684052381554	-1.11347338955e-24
0.0685832699673	-1.13031852537e-24
0.0687613073339	-1.14736395975e-24
0.0689393501639	-1.16461174441e-24
0.0691173983678	-1.18206396051e-24
0.0692954518596	-1.1997227206e-24
0.0694735105446	-1.21759016929e-24
0.0696515743459	-1.23566848639e-24
0.0698296431776	-1.25395988646e-24
0.0700000596781	-1.27166636748e-24
0.0700077169508	-1.27246661806e-24
0.0701857955781	-1.2911909657e-24
0.0703638789842	-1.31013525115e-24
0.070541967092	-1.32930183152e-24
0.070720059822	-1.34869309892e-24
0.0708981570894	-1.36831147874e-24
0.0710762588188	-1.38815943224e-24
0.07125436494	-1.40823945398e-24
0.0714324753813	-1.42855407121e-24
0.0716105900583	-1.44910584096e-24
0.0717887088981	-1.46989735321e-24
0.0719668318252	-1.4909312283e-24
0.0721449587765	-1.51221011957e-24
0.0723230896808	-1.53373670999e-24
0.072501224464	-1.55551371381e-24
0.072679363058	-1.57754387874e-24
0.0728575053928	-1.59982998597e-24
0.0730356514038	-1.62237485252e-24
0.0732138010212	-1.64518133151e-24
0.0733919541758	-1.66825231532e-24
0.0735701108006	-1.69159073852e-24
0.0737482708333	-1.7151995788e-24
0.0739264342129	-1.73908186124e-24
0.0741046008731	-1.76324065806e-24
0.0742827707429	-1.78767909217e-24
0.0744609437661	-1.81240034179e-24
0.0746391198759	-1.83740763896e-24
0.0748172990157	-1.86270427404e-24
0.0749954811225	-1.88829359565e-24
0.0750001138963	-1.88896285251e-24
0.0751736661346	-1.91417901295e-24
0.0753518539881	-1.9403639958e-24
0.075530044626	-1.96685207696e-24
0.0757082379935	-1.99364685278e-24
0.0758864340336	-2.02075198255e-24
0.0760646326902	-2.04817118915e-24
0.0762428339008	-2.07590825845e-24
0.0764210376004	-2.10396704128e-24
0.0765992437343	-2.13235145357e-24
0.076777452245	-2.16106547706e-24
0.0769556630744	-2.1901131594e-24
0.0771338761747	-2.21949861761e-24
0.077312091486	-2.24922603515e-24
0.0774903089463	-2.279299666e-24
0.0776685284923	-2.30972383544e-24
0.0778467500631	-2.34050294403e-24
0.0780249736002	-2.37164146912e-24
0.0782031990461	-2.40314396795e-24
0.0783814263434	-2.43501507921e-24
0.0785596554283	-2.46725952529e-24
0.078737886233	-2.49988211615e-24
0.0789161186835	-2.5328877498e-24
0.0790943526906	-2.56628141421e-24
0.0792725881593	-2.60006819086e-24
0.0794508249918	-2.63425325825e-24
0.0796290630754	-2.66884189159e-24
0.0798073022879	-2.70383946598e-24
0.0799855424984	-2.73925146017e-24
0.0800001582357	-2.74217379949e-24
0.0801637835712	-2.77508346236e-24
0.0803420253717	-2.81134117569e-24
0.080520267756	-2.84803042515e-24
0.080698510573	-2.88515716852e-24
0.0808767536735	-2.92272751107e-24
0.0810549969091	-2.9607477179e-24
0.0812332401329	-2.9992242422e-24
0.0814114832054	-3.03816373692e-24
0.0815897259971	-3.0775730787e-24
0.0817679683897	-3.11745938588e-24
0.0819462102781	-3.1578300385e-24
0.0821244515766	-3.19869267918e-24
0.0823026922244	-3.2400552105e-24
0.0824809321766	-3.28192578681e-24
0.082659171389	-3.32431275875e-24
0.0828374098153	-3.36722465134e-24
0.0830156474134	-3.41067007906e-24
0.0831938841474	-3.45465768833e-24
0.0833721199923	-3.4991960814e-24
0.0835503549427	-3.54429374033e-24
0.0837285890011	-3.58995898849e-24
0.0839068221791	-3.63619993652e-24
0.0840850544871	-3.68302453077e-24
0.0842632859144	-3.73044058022e-24
0.0844415164392	-3.77845591493e-24
0.0846197460483	-3.82707856172e-24
0.0847979747329	-3.87631699093e-24
0.0849762024805	-3.92618038896e-24
0.0850000849268	-3.93291010686e-24
0.0851544292774	-3.97667896198e-24
0.0853326551115	-4.02782419403e-24
0.08551087997	-4.07962903957e-24
0.0856891038376	-4.13210801297e-24
0.0858673266947	-4.18527707345e-24
0.0860455485207	-4.23915332876e-24
0.0862237693005	-4.29375445587e-24
0.0864019890156	-4.34909786719e-24
0.0865802076401	-4.40519962532e-24
0.0867584251415	-4.4620731527e-24
0.086936641482	-4.51972784082e-24
0.0871148566167	-4.57816767227e-24
0.0872930704966	-4.63739004406e-24
0.0874712830668	-4.6973849911e-24
0.0876494942629	-4.75813504368e-24
0.0878277040097	-4.81961593836e-24
0.0880059122198	-4.88179841812e-24
0.0881841187928	-4.94465126335e-24
0.0883623236278	-5.00814568263e-24
0.0885405266206	-5.07226104468e-24
0.088718727658	-5.13699183689e-24
0.0888969266312	-5.2023555641e-24
0.0890751234167	-5.26840120548e-24
0.0892533177903	-5.3352175688e-24
0.0894315094458	-5.40294094314e-24
0.0896096982475	-5.47176122965e-24
0.0897878840714	-5.54192539739e-24
0.0899660668417	-5.61373758155e-24
0.0900000994029	-5.62767000821e-24
0.0901442465415	-5.68755483687e-24
0.0903224230636	-5.76377775791e-24
0.0905005962738	-5.84283554573e-24
0.0906787661145	-5.92516521872e-24
0.0908569325181	-6.01118500857e-24
0.0910350953728	-6.10126253735e-24
0.0912132546438	-6.19567888475e-24
0.0913914104718	-6.29458998245e-24
0.0915695629453	-6.39798712355e-24
0.0917477121037	-6.50565929257e-24
0.0919258580567	-6.61716004346e-24
0.0921040007922	-6.73178166793e-24
0.0922821403425	-6.84854013637e-24
0.0924602768363	-6.96617356292e-24
0.0926384103121	-7.08315678169e-24
0.0928165408	-7.19773470883e-24
0.0929946683445	-7.30797583583e-24
0.0931727930284	-7.41184671797e-24
0.0933509149569	-7.50730720227e-24
0.0935290341942	-7.59242514166e-24
0.0937071508133	-7.66550826634e-24
0.093885264855	-7.72524945245e-24
0.0940633763646	-7.77088088288e-24
0.0942414854185	-7.80233129455e-24
0.0944195920628	-7.82037994305e-24
0.0945976963463	-7.82680024767e-24
0.0947757983259	-7.82448588008e-24
0.0949538980594	-7.81755200712e-24
0.0950000255334	-7.81563668165e-24
0.0951319956173	-7.8114049026e-24
0.0953100910336	-7.81277379517e-24
0.0954881843376	-7.82969988866e-24
