# Model    WH12
# Gamma1   1.3
# Gamma2   2.5
# Gammath  1.5
# alpha0   0.0001
# beta0    -4.35
# 
# time [s] 		 h(t)
0.0	0.0
0.000167445587591	-1.1427225197e-35
0.000335248709988	-4.58065519073e-35
0.000503052040001	-1.03138117307e-34
0.000670855600309	-1.83422019089e-34
0.000838659413646	-2.86658367257e-34
0.00100646350199	-4.12847284115e-34
0.00117426788658	-5.61988904033e-34
0.00134207259275	-7.34083375176e-34
0.00150987764347	-9.2913085796e-34
0.00167768306175	-1.14713152518e-33
0.00184548887069	-1.38808556238e-33
0.00201329509346	-1.65199316703e-33
0.00218110175327	-1.93885455212e-33
0.00234890887342	-2.24866993924e-33
0.00251671647727	-2.58143956761e-33
0.00268452458828	-2.93716368514e-33
0.00285233322988	-3.31584255625e-33
0.00302014242554	-3.71747645416e-33
0.00318795219879	-4.14206566958e-33
0.00335576257323	-4.5896105029e-33
0.00352357357253	-5.06011126826e-33
0.00369138522045	-5.55356829508e-33
0.00385919754082	-6.0699819237e-33
0.00402701055578	-6.60935250714e-33
0.00419482428976	-7.1716804118e-33
0.0043626387683	-7.75696602281e-33
0.00453045401566	-8.36520973478e-33
0.00469827005621	-8.99641195612e-33
0.00486608691443	-9.65057310874e-33
0.00500000537038	-1.01890647867e-32
0.00503390461498	-1.03276936349e-32
0.00520172318261	-1.10277739724e-32
0.00536954264227	-1.17508145962e-32
0.00553736301905	-1.24968159836e-32
0.00570518433823	-1.32657786396e-32
0.00587300662526	-1.40577030498e-32
0.00604082990588	-1.48725897496e-32
0.00620865420622	-1.57104392832e-32
0.00637647955256	-1.65712522051e-32
0.00654430597129	-1.74550290789e-32
0.00671213348894	-1.83617704973e-32
0.00687996213215	-1.92914770538e-32
0.00704779192804	-2.02441493707e-32
0.00721562290175	-2.12197880704e-32
0.00738345508273	-2.22183938233e-32
0.00755128849964	-2.32399672811e-32
0.00771912318074	-2.42845091433e-32
0.00788695915462	-2.53520201006e-32
0.00805479645011	-2.64425008822e-32
0.00822263509621	-2.75559522174e-32
0.00839047512206	-2.86923748647e-32
0.00855831655702	-2.98517695914e-32
0.00872615943085	-3.10341371951e-32
0.00889400377369	-3.22394784736e-32
0.00906184961592	-3.34677942718e-32
0.00922969698809	-3.47190854165e-32
0.00939754592097	-3.59933527735e-32
0.00956539644555	-3.72905972365e-32
0.0097332485934	-3.86108197005e-32
0.0099011023965	-3.99540210885e-32
0.0100001369298	-4.07572885616e-32
0.0100689578871	-4.13202023539e-32
0.0102368150975	-4.27093644491e-32
0.0104046740607	-4.41215083666e-32
0.0105725348081	-4.55566351063e-32
0.010740397374	-4.70147457002e-32
0.0109082617938	-4.84958411875e-32
0.0110761281018	-4.99999226584e-32
0.0112439963331	-5.15269912008e-32
0.0114118665228	-5.30770479233e-32
0.0115797387067	-5.4650093982e-32
0.0117476129209	-5.62461305354e-32
0.0119154892023	-5.78651587788e-32
0.0120833675879	-5.95071799173e-32
0.0122512481154	-6.1172195196e-32
0.0124191308231	-6.28602058788e-32
0.0125870157493	-6.45712132485e-32
0.0127549029335	-6.63052186178e-32
0.012922792415	-6.80622233487e-32
0.0130906842343	-6.98422288005e-32
0.0132585784319	-7.16452363834e-32
0.0134264750492	-7.34712475565e-32
0.0135943741281	-7.53202637774e-32
0.0137622757112	-7.71922865634e-32
0.0139301798416	-7.90873174211e-32
0.0140980865628	-8.10053578875e-32
0.0142659959164	-8.29464095009e-32
0.0144339079505	-8.49104737968e-32
0.0146018227108	-8.68975523317e-32
0.0147697402438	-8.89076466804e-32
0.0149376605966	-9.09407584849e-32
0.0150001276971	-9.170295029e-32
0.0151055838172	-9.29968894827e-32
0.0152735099541	-9.50760415744e-32
0.0154414390568	-9.71782168083e-32
0.0156093711754	-9.9303417446e-32
0.0157773063612	-1.01451645974e-31
0.0159452446658	-1.03622904851e-31
0.016113186142	-1.05817196595e-31
0.0162811308436	-1.08034523355e-31
0.016449078825	-1.1027488701e-31
0.0166170301416	-1.12538288737e-31
0.0167849848498	-1.14824728871e-31
0.016952943007	-1.17134207129e-31
0.0171209046717	-1.19466722361e-31
0.0172888699031	-1.21822273507e-31
0.0174568387619	-1.24200860136e-31
0.0176248113097	-1.26602482968e-31
0.0177927876093	-1.29027145411e-31
0.0179607677243	-1.31474854332e-31
0.0181287517171	-1.33945620673e-31
0.0182967396569	-1.3643946013e-31
0.0184647316111	-1.38956392236e-31
0.0186327276486	-1.41496439109e-31
0.0188007278398	-1.4405962277e-31
0.0189687322562	-1.466459617e-31
0.0191367409708	-1.49255465878e-31
0.0193047540582	-1.51888132261e-31
0.0194727715943	-1.54543939745e-31
0.0196407936567	-1.57222845288e-31
0.0198088203245	-1.59924782514e-31
0.0199768516787	-1.62649662795e-31
0.0200000403781	-1.63027492064e-31
0.0201448878017	-1.65397380981e-31
0.0203129287778	-1.68167825095e-31
0.0204809746932	-1.70960891304e-31
0.0206490256358	-1.73776503513e-31
0.0208170816957	-1.76614635431e-31
0.0209851429647	-1.79475335255e-31
0.0211532095368	-1.82358747853e-31
0.0213212815083	-1.85265132942e-31
0.0214893589774	-1.8819487441e-31
0.0216574420449	-1.91148477364e-31
0.0218255308137	-1.94126549e-31
0.0219936253893	-1.97129760551e-31
0.0221617258773	-2.00158788469e-31
0.0223298323901	-2.03214235891e-31
0.0224979450416	-2.06296536625e-31
0.0226660639481	-2.09405846217e-31
0.0228341892288	-2.12541928644e-31
0.0230023210056	-2.15704048668e-31
0.0231704594039	-2.18890882302e-31
0.0233386045522	-2.22100459002e-31
0.0235067565824	-2.25330150979e-31
0.0236749156299	-2.28576721891e-31
0.0238430818339	-2.31836448815e-31
0.0240112553371	-2.35105323997e-31
0.0241794362865	-2.38379341617e-31
0.024347624833	-2.41654865416e-31
0.0245158211317	-2.44929068949e-31
0.0246840253424	-2.48200430108e-31
0.0248522376293	-2.51469254003e-31
0.0250001030329	-2.54342490427e-31
0.0250204581616	-2.547381914e-31
0.0251886871134	-2.58012711036e-31
0.0253569246641	-2.61301481922e-31
0.0255251709987	-2.64616615719e-31
0.0256934263078	-2.67973720119e-31
0.025861690788	-2.71391717471e-31
0.0260299646422	-2.74892388612e-31
0.0261982480799	-2.78499609909e-31
0.0263665413172	-2.82238268584e-31
0.0265348445745	-2.86132853034e-31
0.0267031580859	-2.90205737253e-31
0.0268714820903	-2.94475196005e-31
0.0270398168347	-2.98953211969e-31
0.0272081625749	-3.03643153449e-31
0.027376519576	-3.08537425625e-31
0.0275448881122	-3.13615211091e-31
0.0277132684683	-3.18840432458e-31
0.0278816609394	-3.24160077614e-31
0.028050065832	-3.29503031067e-31
0.0282184834642	-3.34779553424e-31
0.0283869141667	-3.3988153915e-31
0.0285553582834	-3.44683669629e-31
0.028723816172	-3.49045553699e-31
0.028892288205	-3.52814917872e-31
0.0290607747705	-3.55831879148e-31
0.0292292762731	-3.57934289465e-31
0.029397793135	-3.58964106069e-31
0.0295663257972	-3.58774696792e-31
0.0297348747204	-3.57238950917e-31
0.0299034403864	-3.54258027688e-31
0.0300000362525	-3.51873119375e-31
0.0300720232998	-3.49770540204e-31
0.0302406239889	-3.43761944991e-31
0.0304092430081	-3.36273886616e-31
0.0305778809391	-3.27413233433e-31
0.0307465383931	-3.17360537098e-31
0.0309152160129	-3.06377653949e-31
0.0310839144726	-2.94814282901e-31
0.0312526344877	-2.83113194152e-31
0.0314213768114	-2.71813961905e-31
0.0315901422389	-2.6155504699e-31
0.0317589316111	-2.53074125486e-31
0.0319277458188	-2.47206604566e-31
0.0320965858065	-2.44882321732e-31
0.0322654525772	-2.47120473034e-31
0.0324343471974	-2.55022866146e-31
0.0326032708038	-2.69765643528e-31
0.0327722246103	-2.92589660272e-31
0.032941209912	-3.24789737962e-31
0.0331102280937	-3.67703044592e-31
0.033279280642	-4.22696871999e-31
0.0334483691545	-4.91156091129e-31
0.0336174953516	-5.74470570188e-31
0.0337866610895	-6.74022834136e-31
0.033955868376	-7.91176231775e-31
0.0341251193884	-9.27263854112e-31
0.0342944164936	-1.08357842318e-30
0.034463762272	-1.26136333594e-30
0.0346331595452	-1.46180501655e-30
0.0348026114089	-1.68602669155e-30
0.034972121271	-1.93508366414e-30
0.0350000962282	-1.97863436089e-30
0.035141692897	-2.20996012949e-30
0.035311330465	-2.51156753407e-30
0.0354810386306	-2.84074445929e-30
0.0356508226073	-3.19825797545e-30
0.0358206882625	-3.58480639047e-30
0.0359906422388	-4.00102331665e-30
0.0361606921054	-4.44748295767e-30
0.0363308465447	-4.92470653256e-30
0.0365011155977	-5.43316978489e-30
0.0366715109746	-5.97331151317e-30
0.0368420464696	-6.54554319722e-30
0.0370127385139	-7.15025981806e-30
0.0371836069335	-7.78785217888e-30
0.0373546760009	-8.45872123732e-30
0.037525975975	-9.16329555366e-30
0.0376975453898	-9.90205359728e-30
0.0378694053405	-1.06754197338e-29
0.0380414891816	-1.14834158875e-29
0.0382137950725	-1.23263413781e-29
0.0383863249039	-1.32045236605e-29
0.03855907542	-1.41182777125e-29
0.0387320380407	-1.50679028373e-29
0.0389051999636	-1.60536858961e-29
0.0390785462502	-1.70759109864e-29
0.0392520617105	-1.81348698566e-29
0.0394257320205	-1.92308690461e-29
0.0395995452615	-2.03642407578e-29
0.0397734919189	-2.15353447909e-29
0.0399475643838	-2.27445666822e-29
0.0400001580525	-2.31173069263e-29
0.0401217565755	-2.39923158427e-29
0.0402959792303	-2.5278391313e-29
0.0404701417839	-2.66025195821e-29
0.040644255692	-2.79651699412e-29
0.0408183311069	-2.93668230655e-29
0.040992374974	-3.08079525086e-29
0.0411663930469	-3.22890375308e-29
0.0413403897923	-3.38105599847e-29
0.0415143685797	-3.53730038398e-29
0.041688331917	-3.69768554768e-29
0.0418622817038	-3.86226045407e-29
0.0420362193336	-4.03107439021e-29
0.0422101458237	-4.20417699851e-29
0.0423840619709	-4.38161836899e-29
0.042557968458	-4.56344911256e-29
0.0427318658935	-4.74972037152e-29
0.042905754857	-4.94048385047e-29
0.0430796358752	-5.13579178023e-29
0.0432535094071	-5.33569687825e-29
0.0434273758322	-5.54025232187e-29
0.0436012354616	-5.74951173716e-29
0.0437750885707	-5.9635292228e-29
0.0439489354174	-6.18235936089e-29
0.0441227762388	-6.40605720496e-29
0.0442966112351	-6.63467825303e-29
0.0444704405751	-6.86827845291e-29
0.0446442644004	-7.10691421187e-29
0.0448180828377	-7.35064242358e-29
0.044991896013	-7.59952050875e-29
0.0450000651049	-7.61134545963e-29
0.0451657040505	-7.85360643909e-29
0.045339507076	-8.11295877224e-29
0.0455133052165	-8.37763669058e-29
0.0456870985927	-8.64770002508e-29
0.0458608873202	-8.9232092967e-29
0.046034671506	-9.20422574608e-29
0.0462084512491	-9.49081136824e-29
0.046382226641	-9.78302893322e-29
0.0465559977707	-1.00809420376e-28
0.0467297647259	-1.03846150624e-28
0.046903527588	-1.06941132536e-28
0.0470772864322	-1.10095026262e-28
0.0472510413292	-1.1330850021e-28
0.0474247923452	-1.16582230492e-28
0.0475985395429	-1.19916900404e-28
0.0477722829831	-1.2331320086e-28
0.0479460227223	-1.26771829387e-28
0.0481197588124	-1.30293490121e-28
0.0482934913011	-1.33878893254e-28
0.0484672202369	-1.37528755685e-28
0.0486409456673	-1.41243799944e-28
0.0488146676404	-1.45024755176e-28
0.0489883862002	-1.48872356541e-28
0.049162101388	-1.52787346381e-28
0.0493358132449	-1.56770473815e-28
0.0495095218079	-1.60822496114e-28
0.0496832271136	-1.64944178963e-28
0.049856929201	-1.69136297552e-28
0.0500000573263	-1.72644090185e-28
0.0500306281035	-1.73399637335e-28
0.0502043238528	-1.77734994909e-28
0.0503780164819	-1.82143178792e-28
0.0505517060212	-1.86625010509e-28
0.0507253925011	-1.91181324956e-28
0.0508990759517	-1.95812971398e-28
0.0510727563991	-2.00520813475e-28
0.0512464338713	-2.05305729883e-28
0.0514201083947	-2.10168614383e-28
0.0515937799925	-2.1511037532e-28
0.051767448688	-2.20131936115e-28
0.0519411145094	-2.2523423413e-28
0.052114777478	-2.3041822062e-28
0.0522884376176	-2.35684859547e-28
0.0524620949517	-2.4103512751e-28
0.052635749499	-2.46470012046e-28
0.0528094012803	-2.51990511428e-28
0.0529830503167	-2.57597633389e-28
0.0531566966262	-2.63292394639e-28
0.0533303402289	-2.69075819805e-28
0.0535039811441	-2.7494894073e-28
0.053677619388	-2.80912795711e-28
0.0538512549797	-2.86968429195e-28
0.0540248879382	-2.93116891184e-28
0.0541985182788	-2.9935923648e-28
0.0543721460182	-3.05696524461e-28
0.0545457711737	-3.12129818611e-28
0.0547193937608	-3.18660186408e-28
0.054893013796	-3.25288698567e-28
0.0550001360924	-3.29427916553e-28
0.0550666312966	-3.32016428924e-28
0.0552402462765	-3.38844453672e-28
0.0554138587517	-3.45773851058e-28
0.05558746874	-3.52805701202e-28
0.0557610762537	-3.59941084737e-28
0.0559346813078	-3.67181082796e-28
0.0561082839212	-3.74526776631e-28
0.0562818841071	-3.81979246269e-28
0.0564554818731	-3.89539570371e-28
0.0566290772379	-3.97208826265e-28
0.0568026702239	-4.04988089445e-28
0.0569762608399	-4.1287843268e-28
0.057149849091	-4.20880926116e-28
0.0573234350001	-4.28996638819e-28
0.0574970185845	-4.37226638172e-28
0.0576705998507	-4.45571989795e-28
0.057844178813	-4.54033759752e-28
0.0580177554877	-4.62613014926e-28
0.0581913298843	-4.71310824206e-28
0.0583649020187	-4.80128260485e-28
0.0585384719082	-4.8906640166e-28
0.0587120395629	-4.98126332266e-28
0.0588856049909	-5.07309144838e-28
0.0590591682063	-5.16615942449e-28
0.0592327292221	-5.26047839369e-28
0.0594062880504	-5.35605963046e-28
0.059579844707	-5.45291455075e-28
0.059753399205	-5.55105472064e-28
0.0599269515517	-5.65049186638e-28
0.0600000164477	-5.6927457197e-28
0.0601005017559	-5.75123787447e-28
0.0602740498356	-5.85330480909e-28
0.0604475958049	-5.95670489787e-28
0.0606211396726	-6.06145053367e-28
0.06079468145	-6.16755426819e-28
0.0609682211486	-6.27502881353e-28
0.0611417587804	-6.38388702811e-28
0.0613152943588	-6.49414191064e-28
0.0614888278934	-6.60580659228e-28
0.0616623593911	-6.71889432508e-28
0.0618358888624	-6.83341848204e-28
0.0620094163198	-6.94939254815e-28
0.0621829417692	-7.06683011144e-28
0.0623564652202	-7.18574487099e-28
0.0625299866897	-7.30615063469e-28
0.0627035061845	-7.4280613153e-28
0.0628770237096	-7.55149093801e-28
0.0630505392772	-7.67645365439e-28
0.0632240528971	-7.80296374556e-28
0.0633975645761	-7.93103563432e-28
0.0635710743215	-8.06068389547e-28
0.0637445821469	-8.19192327562e-28
0.0639180880646	-8.32476869846e-28
0.0640915920829	-8.45923527692e-28
0.0642650942089	-8.59533832283e-28
0.0644385944513	-8.73309336419e-28
0.064612092821	-8.87251614865e-28
0.0647855893256	-9.01362264896e-28
0.0649590839709	-9.15642906338e-28
0.065000028437	-9.19038108855e-28
0.0651325767666	-9.30095182626e-28
0.0653060677224	-9.44720759965e-28
0.0654795568455	-9.5952132724e-28
0.065653044144	-9.74498595493e-28
0.0658265296261	-9.89654296153e-28
0.0660000133004	-1.00499018378e-27
0.0661734951759	-1.02050802987e-27
0.0663469752616	-1.03620962718e-27
0.0665204535683	-1.05209678709e-27
0.066693930107	-1.06817133552e-27
0.066867404883	-1.08443511978e-27
0.0670408779003	-1.10088999905e-27
0.0672143491666	-1.11753785261e-27
0.0673878186905	-1.13438057545e-27
0.0675612864815	-1.15142008115e-27
0.0677347525509	-1.16865830141e-27
0.0679082169084	-1.1860971857e-27
0.068081679562	-1.2037387037e-27
0.0682551405191	-1.2215848493e-27
0.0684285997811	-1.23963763489e-27
0.0686020573525	-1.25789910186e-27
0.0687755132449	-1.27637131693e-27
0.0689489674699	-1.2950563758e-27
0.0691224200353	-1.31395640336e-27
0.069295870946	-1.33307355642e-27
0.0694693202077	-1.35241002197e-27
0.0696427678308	-1.37196802384e-27
0.0698162138248	-1.39174981991e-27
0.0699896581998	-1.41175770298e-27
0.070000064811	-1.412965416e-27
0.07016310096	-1.43199400076e-27
0.0703365421041	-1.45246107613e-27
0.0705099816409	-1.47316132782e-27
0.0706834195841	-1.49409719258e-27
0.0708568559466	-1.51527113819e-27
0.0710302907333	-1.53668566748e-27
0.0712037239446	-1.55834331649e-27
0.0713771555889	-1.58024665315e-27
0.0715505856758	-1.60239827864e-27
0.0717240142124	-1.62480082515e-27
0.0718974412046	-1.64745695416e-27
0.0720708666629	-1.67036936022e-27
0.0722442905944	-1.69354076694e-27
0.0724177130018	-1.71697392903e-27
0.0725911338879	-1.7406716342e-27
0.072764553267	-1.7646367033e-27
0.0729379711499	-1.78887199205e-27
0.0731113875369	-1.81338039003e-27
0.0732848024302	-1.83816482481e-27
0.0734582158416	-1.86322826461e-27
0.0736316277826	-1.88857372232e-27
0.0738050382549	-1.91420425051e-27
0.0739784472623	-1.94012295135e-27
0.0741518548129	-1.96633297547e-27
0.0743252609142	-1.9928375258e-27
0.0744986655743	-2.01963985782e-27
0.0746720687999	-2.04674328326e-27
0.0748454705944	-2.07415117111e-27
0.0750001437915	-2.0988587093e-27
0.0750188709629	-2.10186694867e-27
0.0751922699155	-2.12989410546e-27
0.075365667457	-2.15823618803e-27
0.0755390635917	-2.18689680748e-27
0.0757124583296	-2.21587963973e-27
0.0758858516761	-2.245188419e-27
0.076059243633	-2.2748269458e-27
0.0762326342101	-2.30479908271e-27
0.0764060234132	-2.33510875837e-27
0.0765794112447	-2.36575996364e-27
0.0767527977136	-2.39675675562e-27
0.0769261828297	-2.42810325912e-27
0.0770995665946	-2.45980366138e-27
0.0772729490132	-2.49186222048e-27
0.0774463300961	-2.52428326537e-27
0.0776197098471	-2.55707119297e-27
0.0777930882692	-2.59023047696e-27
0.0779664653724	-2.62376566577e-27
0.0781398411618	-2.6576813835e-27
0.0783132156393	-2.69198233885e-27
0.0784865888144	-2.72667332185e-27
0.0786599606929	-2.76175920818e-27
0.0788333312767	-2.79724496378e-27
0.0790067005742	-2.83313564469e-27
0.0791800685908	-2.8694364014e-27
0.0793534353294	-2.90615247938e-27
0.0795268007963	-2.9432892223e-27
0.0797001649988	-2.98085207569e-27
0.0798735279407	-3.01884658901e-27
0.0800000820953	-3.04685839925e-27
0.0800468896273	-3.05727841646e-27
0.0802202500649	-3.0961533268e-27
0.080393609259	-3.13547720612e-27
0.0805669672127	-3.17525606743e-27
0.0807403239319	-3.21549605934e-27
0.0809136794235	-3.25620348559e-27
0.0810870336905	-3.29738481342e-27
0.0812603867382	-3.33904669716e-27
0.0814337385734	-3.38119599729e-27
0.0816070892005	-3.42383979736e-27
0.081780438624	-3.46698542228e-27
0.081953786848	-3.51064045427e-27
0.0821271338769	-3.55481273415e-27
0.0823004797155	-3.59951035949e-27
0.0824738243698	-3.64474166714e-27
0.0826471678453	-3.69051520305e-27
0.082820510145	-3.73683967454e-27
0.0829938512739	-3.78372389425e-27
0.0831671912364	-3.83117671233e-27
0.0833405300334	-3.87920693492e-27
0.0835138676716	-3.92782326739e-27
0.0836872041579	-3.97703424686e-27
0.0838605394963	-4.02684821566e-27
0.0840338736891	-4.0772733257e-27
0.0842072067406	-4.12831758562e-27
0.0843805386566	-4.1799889751e-27
0.0845538694427	-4.23229559848e-27
0.0847271991012	-4.28524590591e-27
0.084900527634	-4.33884895594e-27
0.0850000177048	-4.36991578406e-27
0.0850738550451	-4.39311469167e-27
0.0852471813402	-4.44805421947e-27
0.0854205065236	-4.50368003672e-27
0.0855938305987	-4.56000616706e-27
0.0857671535698	-4.61704816114e-27
0.0859404754416	-4.67482291411e-27
0.086113796217	-4.73334825713e-27
0.0862871158987	-4.79264230525e-27
0.0864604344909	-4.85272255285e-27
0.0866337519983	-4.91360475378e-27
0.0868070684246	-4.97530162348e-27
0.0869803837722	-5.03782147621e-27
0.0871536980445	-5.10116693323e-27
0.0873270112471	-5.16533384436e-27
0.0875003233853	-5.23031064625e-27
0.0876736344622	-5.2960783503e-27
0.0878469444791	-5.36261137778e-27
0.088020253439	-5.42987943676e-27
0.0881935613473	-5.49785058318e-27
0.0883668682075	-5.56649555931e-27
0.0885401740221	-5.63579338906e-27
0.0887134787947	-5.70573813826e-27
0.0888867825293	-5.77634656667e-27
0.0890600852292	-5.84766630805e-27
0.0892333868978	-5.91978404262e-27
0.0894066875386	-5.99283302706e-27
0.0895799871546	-6.06699919601e-27
0.0897532857488	-6.14252504245e-27
0.0899265833229	-6.21971037532e-27
0.0900000611868	-6.25302253437e-27
0.0900998798788	-6.29890917955e-27
0.0902731754205	-6.38052181638e-27
0.0904464699497	-6.46498202273e-27
0.0906197634707	-6.55273840963e-27
0.0907930559852	-6.64423043162e-27
0.0909663474969	-6.73985921745e-27
0.0911396380088	-6.83995401811e-27
0.0913129275227	-6.94473549671e-27
0.0914862160406	-7.05427749582e-27
0.0916595035648	-7.16846934033e-27
0.0918327900967	-7.28698107476e-27
0.0920060756376	-7.40923429664e-27
0.09217936019	-7.53438140684e-27
0.0923526437564	-7.66129609249e-27
0.0925259263378	-7.78857774114e-27
0.0926992079346	-7.91457214209e-27
0.0928724885488	-8.03741038074e-27
0.0930457681837	-8.15506716676e-27
0.0932190468404	-8.26543905588e-27
0.0933923245178	-8.36644212469e-27
0.0935656012151	-8.4561276512e-27
0.0937388769312	-8.53281332409e-27
0.0939121516638	-8.59522648486e-27
0.0940854254092	-8.6426549294e-27
0.094258698163	-8.67509995812e-27
0.09443196992	-8.69342566764e-27
