# Model    WH12
# Gamma1   1.28
# Gamma2   2.5
# Gammath  1.5
# alpha0   0.0001
# beta0    -4.35
# 
# time [s] 		 h(t)
0.0	0.0
0.000167445034717	-1.14271502472e-35
0.000335247608772	-4.58062530219e-35
0.000503050410803	-1.03137453948e-34
0.000670853473735	-1.83420864457e-34
0.000838656830577	-2.86656614214e-34
0.00100646051354	-4.12844850897e-34
0.00117426455437	-5.61985739691e-34
0.00134206898874	-7.3407946542e-34
0.00150987385006	-9.2912623079e-34
0.0016776791719	-1.14712625659e-33
0.00184548498795	-1.38807978336e-33
0.00201329133208	-1.65198706818e-33
0.00218109823827	-1.93884838912e-33
0.00234890574071	-2.24866404165e-33
0.00251671387374	-2.58143434183e-33
0.00268452267191	-2.9371596231e-33
0.00285233216994	-3.31584023938e-33
0.00302014240279	-3.717476565e-33
0.00318795340563	-4.14206899077e-33
0.00335576521385	-4.58961793082e-33
0.00352357786305	-5.06012381788e-33
0.00369139138905	-5.55358710394e-33
0.00385920582585	-6.07000826159e-33
0.00402702121068	-6.60938778377e-33
0.00419483758131	-7.17172618863e-33
0.00436265497467	-7.75702400896e-33
0.00453047342796	-8.3652818038e-33
0.00469829297873	-8.99650015259e-33
0.00486611366486	-9.65067965425e-33
0.00500003541246	-1.01891876875e-32
0.00503393552457	-1.03278209303e-32
0.00520175859646	-1.10279246302e-32
0.0053695829195	-1.17509914172e-32
0.00553740853308	-1.24970219913e-32
0.00570523547698	-1.32660170613e-32
0.00587306379141	-1.40579773568e-32
0.00604089351706	-1.48729036555e-32
0.00620872469505	-1.5710796736e-32
0.00637655736701	-1.65716574138e-32
0.00654439157507	-1.74554865257e-32
0.0067122273619	-1.83622849271e-32
0.00688006477069	-1.92920535322e-32
0.00704790384524	-2.0244793235e-32
0.00721574462991	-2.12205049879e-32
0.00738358716971	-2.22191897643e-32
0.00755143150829	-2.32408485655e-32
0.00771927769311	-2.42854824204e-32
0.00788712577246	-2.53530923909e-32
0.00805497579413	-2.64436795645e-32
0.00822282780661	-2.75572450791e-32
0.00839068185905	-2.86937900822e-32
0.0085585380014	-2.98533157499e-32
0.00872639628462	-3.10358233069e-32
0.00889425676062	-3.22413140084e-32
0.00906211948214	-3.34697891467e-32
0.00922998450275	-3.47212500543e-32
0.00939785187692	-3.59956980718e-32
0.00956572166027	-3.72931346202e-32
0.00973359390941	-3.86135611175e-32
0.00990146868194	-3.99569790621e-32
0.0100000123723	-4.0756275053e-32
0.0100693460365	-4.132338996e-32
0.0102372260327	-4.27127953577e-32
0.0104051087312	-4.41251968787e-32
0.0105729941941	-4.55605961467e-32
0.0107408824845	-4.70189948632e-32
0.0109087736672	-4.85003947583e-32
0.0110766678078	-5.00047976018e-32
0.0112445649736	-5.153220525e-32
0.011412465232	-5.30826195516e-32
0.0115803686514	-5.46560424505e-32
0.0117482753057	-5.62524759293e-32
0.0119161852681	-5.78719220303e-32
0.0120840986134	-5.95143828439e-32
0.012252015418	-6.11798605282e-32
0.01241993576	-6.28683572806e-32
0.0125878597193	-6.45798753859e-32
0.012755787378	-6.63144171687e-32
0.0129237188201	-6.80719850377e-32
0.0130916541316	-6.9852581464e-32
0.0132595934004	-7.16562090042e-32
0.0134275367171	-7.34828702832e-32
0.0135954841742	-7.53325680131e-32
0.0137634358668	-7.7205304975e-32
0.0139313918927	-7.91010840087e-32
0.014099352352	-8.101990805e-32
0.0142673173478	-8.29617800561e-32
0.0144352869858	-8.49267030708e-32
0.0146032613748	-8.6914680206e-32
0.0147712406268	-8.89257146401e-32
0.0149392248567	-9.09598097264e-32
0.015000036398	-9.17018377684e-32
0.0151072141832	-9.3016968942e-32
0.015275208728	-9.50971960083e-32
0.015443208617	-9.72004949147e-32
0.0156112139787	-9.93268698464e-32
0.0157792249453	-1.01476325443e-31
0.0159472416568	-1.03648866302e-31
0.0161152642555	-1.05844497113e-31
0.016283292888	-1.08063222535e-31
0.016451327706	-1.10305046782e-31
0.0166193688663	-1.12569973564e-31
0.0167874165309	-1.14858005928e-31
0.0169554708674	-1.17169146325e-31
0.0171235320493	-1.19503396619e-31
0.0172916002565	-1.21860758938e-31
0.0174596756752	-1.24241235697e-31
0.0176277584985	-1.26644831297e-31
0.0177958489268	-1.29071552736e-31
0.0179639471682	-1.31521410492e-31
0.0181320534387	-1.33994419678e-31
0.0183001679631	-1.36490600078e-31
0.018468290975	-1.39009975498e-31
0.0186364227176	-1.41552572633e-31
0.0188045634439	-1.44118418365e-31
0.0189727134177	-1.46707535749e-31
0.0191408729144	-1.49319939925e-31
0.0193090422213	-1.51955632904e-31
0.0194772216385	-1.54614598844e-31
0.0196454114802	-1.57296800042e-31
0.0198136120745	-1.60002175873e-31
0.019981823765	-1.62730643811e-31
0.0200001595251	-1.63029438497e-31
0.0201500469095	-1.65482105332e-31
0.0203182818871	-1.68256455908e-31
0.0204865290959	-1.71053600064e-31
0.020654788953	-1.73873471094e-31
0.0208230618977	-1.7671605386e-31
0.0209913483924	-1.79581408984e-31
0.0211596489251	-1.82469695562e-31
0.0213279640106	-1.85381189144e-31
0.0214962941935	-1.88316291122e-31
0.0216646400501	-1.91275524877e-31
0.0218330021911	-1.94259516493e-31
0.022001381265	-1.97268955857e-31
0.0221697779609	-2.00304536443e-31
0.0223381930123	-2.03366876049e-31
0.0225066272016	-2.06456418895e-31
0.0226750813644	-2.09573325644e-31
0.0228435563947	-2.12717358805e-31
0.0230120532512	-2.15887774507e-31
0.0231805729636	-2.19083232416e-31
0.0233491166406	-2.22301738877e-31
0.0235176854783	-2.25540637856e-31
0.0236862807706	-2.28796664092e-31
0.0238549039202	-2.32066068752e-31
0.0240235564527	-2.35344829835e-31
0.0241922400316	-2.38628946765e-31
0.0243609564767	-2.41914820104e-31
0.0245297077856	-2.4519970377e-31
0.0246984961589	-2.48482213708e-31
0.024867324029	-2.51762864336e-31
0.025000052209	-2.54341971922e-31
0.0250361940992	-2.55044599917e-31
0.025205109388	-2.58333278648e-31
0.0253740732792	-2.61638061979e-31
0.0255430895893	-2.64971658664e-31
0.0257121626492	-2.68350373647e-31
0.0258812974077	-2.71793912371e-31
0.0260504995616	-2.75324899764e-31
0.0262197757259	-2.78968081098e-31
0.0263891336547	-2.82749187136e-31
0.0265585825372	-2.86693461947e-31
0.0267281334006	-2.90823870524e-31
0.0268977996698	-2.95159025827e-31
0.0270675979695	-2.99710897268e-31
0.0272375453004	-3.04482269315e-31
0.0274076150706	-3.09462896151e-31
0.0275778002299	-3.14628767546e-31
0.0277481041296	-3.19939747259e-31
0.0279185291219	-3.25337460482e-31
0.0280890765584	-3.30744053529e-31
0.0282597469199	-3.36061680879e-31
0.0284305400307	-3.4117287316e-31
0.0286014553622	-3.45941918159e-31
0.0287724921468	-3.50217355877e-31
0.0289436489619	-3.53835659312e-31
0.0291149244855	-3.56626176574e-31
0.0292863175114	-3.58417273016e-31
0.0294578268237	-3.59043637727e-31
0.0296294512108	-3.58354655819e-31
0.0298011895134	-3.56223687331e-31
0.0299730406207	-3.52558054063e-31
0.0300000314199	-3.51839309101e-31
0.0301450034645	-3.47309493672e-31
0.0303170769954	-3.40484806977e-31
0.0304892601788	-3.32156399979e-31
0.030661547444	-3.22472673391e-31
0.0308338812476	-3.11670626807e-31
0.0310062425934	-3.00078750979e-31
0.0311786305617	-2.88123703363e-31
0.0313510442257	-2.76336146015e-31
0.0315234827212	-2.6535378793e-31
0.031695945286	-2.55922442616e-31
0.0318684311173	-2.48895018263e-31
0.0320409393234	-2.45228386647e-31
0.0322134690002	-2.4597816889e-31
0.0323860192269	-2.52291548151e-31
0.0325585891056	-2.65398265523e-31
0.0327311777878	-2.86600015783e-31
0.0329037844689	-3.17258500221e-31
0.0330764083726	-3.58782425632e-31
0.0332490487708	-4.12613780991e-31
0.0334217049752	-4.80213719416e-31
0.0335943763158	-5.63048378087e-31
0.0337670621435	-6.62574980816e-31
0.0339397618259	-7.80228528128e-31
0.0341124747513	-9.17409370089e-31
0.0342852003288	-1.07547190517e-30
0.034457937988	-1.25571461183e-30
0.0346306871749	-1.45937157643e-30
0.034803447357	-1.6876056296e-30
0.034976218013	-1.94150314561e-30
0.0350000611578	-1.97861345024e-30
0.0351489986388	-2.22207052963e-30
0.0353217887435	-2.53023235624e-30
0.0354945878555	-2.86683108341e-30
0.0356673955118	-3.23262823226e-30
0.0358402112682	-3.62830691486e-30
0.0360130346967	-4.05447552154e-30
0.0361858653824	-4.51167240113e-30
0.036358702923	-5.00037134866e-30
0.0365315469297	-5.52098773218e-30
0.0367043970314	-6.07388506616e-30
0.0368772528672	-6.65938181601e-30
0.0370501140915	-7.27775834986e-30
0.0372229803687	-7.92926380756e-30
0.0373958513716	-8.61412280785e-30
0.0375687267901	-9.33254191628e-30
0.0377416063037	-1.00847155838e-29
0.0379144896031	-1.08708318321e-29
0.0380873764073	-1.16910774328e-29
0.0382602664498	-1.25456424363e-29
0.0384331594627	-1.34347240301e-29
0.0386060551832	-1.4358530025e-29
0.0387789533658	-1.53172817099e-29
0.0389518537689	-1.6311216023e-29
0.0391247561601	-1.73405873397e-29
0.0392976602956	-1.84056684704e-29
0.0394705659562	-1.95067515829e-29
0.0396434729121	-2.06441482251e-29
0.0398163809466	-2.18181892853e-29
0.0399892898472	-2.30292244269e-29
0.0400000102229	-2.31055347509e-29
0.0401621994021	-2.427762123e-29
0.0403351093704	-2.55637638443e-29
0.0405080194526	-2.68880514594e-29
0.0406809292874	-2.82508968038e-29
0.0408538384832	-2.96527248139e-29
0.041026746699	-3.10939717305e-29
0.0411996536781	-3.25750839983e-29
0.0413725592458	-3.40965168795e-29
0.0415454632511	-3.56587327771e-29
0.0417183655403	-3.72621998871e-29
0.041891265979	-3.89073914313e-29
0.0420641644418	-4.05947849186e-29
0.0422370608021	-4.23248615229e-29
0.0424099549456	-4.40981059494e-29
0.0425828468027	-4.59150067524e-29
0.042755736309	-4.77760560782e-29
0.0429286234675	-4.96817506762e-29
0.0431015083439	-5.16325923407e-29
0.04327439104	-5.36290882689e-29
0.0434472716741	-5.56717513982e-29
0.0436201503334	-5.77611004824e-29
0.0437930270233	-5.98976599895e-29
0.0439659016802	-6.20819606181e-29
0.0441387742685	-6.43145408945e-29
0.0443116447672	-6.65959473151e-29
0.0444845131497	-6.89267341865e-29
0.0446573793822	-7.13074636507e-29
0.0448302434426	-7.37387057399e-29
0.0450001666724	-7.61784081584e-29
0.0450031053056	-7.62210379056e-29
0.0451759649429	-7.87550446427e-29
0.0453488223344	-8.13413171641e-29
0.045521677456	-8.39804527026e-29
0.045694530283	-8.66730539747e-29
0.0458673808081	-8.94197290259e-29
0.0460402290111	-9.22210902292e-29
0.0462130748555	-9.50777538488e-29
0.0463859183239	-9.79903403359e-29
0.0465587594217	-1.00959474497e-28
0.0467315981202	-1.03985784408e-28
0.0469044343968	-1.07069901989e-28
0.0470772682457	-1.10212464395e-28
0.0472500996516	-1.13414113131e-28
0.0474229286069	-1.166754956e-28
0.0475957551021	-1.19997265517e-28
0.0477685791214	-1.23380083342e-28
0.0479414006542	-1.26824617875e-28
0.0481142196933	-1.30331546259e-28
0.0482870362369	-1.33901555204e-28
0.0484598502671	-1.37535341432e-28
0.0486326617749	-1.4123361212e-28
0.0488054707694	-1.44997085915e-28
0.048978277246	-1.48826492434e-28
0.0491510811777	-1.52722572086e-28
0.0493238825746	-1.56686077427e-28
0.0494966814461	-1.60717772009e-28
0.0496694777644	-1.64818429696e-28
0.0498422715334	-1.68988834969e-28
0.0500000300256	-1.72857998453e-28
0.0500150627611	-1.73229782827e-28
0.0501878514328	-1.77542077223e-28
0.0503606375579	-1.81926531946e-28
0.0505334211414	-1.86383969259e-28
0.0507062021705	-1.90915219793e-28
0.0508789806492	-1.95521123032e-28
0.0510517565832	-2.00202527107e-28
0.0512245299731	-2.04960288411e-28
0.0513973008161	-2.09795272653e-28
0.0515700691143	-2.14708354664e-28
0.0517428348771	-2.19700419838e-28
0.0519155981066	-2.24772364244e-28
0.0520883587944	-2.29925094808e-28
0.0522611169504	-2.3515953156e-28
0.0524338725904	-2.40476607414e-28
0.0526066257049	-2.45877268295e-28
0.0527793762987	-2.51362474704e-28
0.0529521243769	-2.5693320131e-28
0.0531248699409	-2.62590437461e-28
0.0532976129985	-2.6833518672e-28
0.053470353559	-2.74168466857e-28
0.0536430916182	-2.80091308114e-28
0.0538158271847	-2.86104753726e-28
0.0539885602707	-2.92209857353e-28
0.0541612908822	-2.98407682375e-28
0.0543340190255	-3.04699299418e-28
0.0545067447018	-3.11085785032e-28
0.0546794679126	-3.17568219336e-28
0.054852188669	-3.24147684773e-28
0.055000035696	-3.29857604324e-28
0.0550249069833	-3.30825263965e-28
0.0551976228656	-3.37602037274e-28
0.0553703363212	-3.44479081524e-28
0.0555430473458	-3.51457468248e-28
0.0557157559524	-3.58538263602e-28
0.0558884621593	-3.65722527026e-28
0.0560611659727	-3.73011310527e-28
0.0562338673899	-3.80405658109e-28
0.0564065664244	-3.87906607843e-28
0.0565792630894	-3.95515191256e-28
0.0567519573889	-4.03232434773e-28
0.0569246493195	-4.11059360174e-28
0.0570973389007	-4.1899698842e-28
0.0572700261477	-4.2704633969e-28
0.0574427110643	-4.35208435461e-28
0.057615393653	-4.43484300214e-28
0.0577880739231	-4.51874964898e-28
0.0579607518828	-4.60381467146e-28
0.0581334275447	-4.69004854553e-28
0.0583061009225	-4.77746185248e-28
0.0584787720151	-4.86606528665e-28
0.0586514408239	-4.95586967531e-28
0.0588241073682	-5.04688599503e-28
0.0589967716627	-5.13912536117e-28
0.0591694337028	-5.23259902432e-28
0.0593420934976	-5.32731838574e-28
0.0595147510602	-5.42329498684e-28
0.059687406409	-5.52054050537e-28
0.0598600595463	-5.61906673618e-28
0.0600000796212	-5.69992020864e-28
0.0600327104794	-5.71888559297e-28
0.0602053592266	-5.82000910454e-28
0.0603780057934	-5.92244938853e-28
0.0605506501855	-6.02621865441e-28
0.0607232924169	-6.13132919934e-28
0.0608959324957	-6.23779339458e-28
0.0610685704316	-6.34562368731e-28
0.0612412062384	-6.45483260059e-28
0.0614138399254	-6.56543273137e-28
0.0615864714953	-6.67743675106e-28
0.061759100962	-6.79085742914e-28
0.0619317283367	-6.90570762682e-28
0.0621043536234	-7.02200031101e-28
0.0622769768327	-7.13974857438e-28
0.0624495979725	-7.25896564503e-28
0.0626222170498	-7.37966490114e-28
0.0627948340728	-7.5018598885e-28
0.0629674490536	-7.62556433786e-28
0.0631400619959	-7.75079216912e-28
0.0633126729138	-7.87755751638e-28
0.0634852818137	-8.00587472635e-28
0.0636578887026	-8.13575837283e-28
0.0638304935908	-8.26722326373e-28
0.064003096485	-8.4002844343e-28
0.0641756973958	-8.53495716013e-28
0.0643482963347	-8.67125694519e-28
0.064520893304	-8.80919951244e-28
0.0646934883146	-8.94880080893e-28
0.0648660813774	-9.09007698807e-28
0.0650000122575	-9.20087186256e-28
0.0650386725012	-9.23304439824e-28
0.0652112616951	-9.37771957385e-28
0.0653838489647	-9.52411921821e-28
0.0655564343166	-9.67226019719e-28
0.0657290177597	-9.8221595264e-28
0.0659015993063	-9.97383437772e-28
0.0660741789597	-1.01273020252e-27
0.0662467567312	-1.02825798945e-27
0.0664193326223	-1.04396855379e-27
0.0665919066488	-1.05986366231e-27
0.0667644788175	-1.07594509546e-27
0.066937049134	-1.09221464824e-27
0.0671096176028	-1.10867412826e-27
0.0672821842385	-1.12532536042e-27
0.0674547490479	-1.14217018927e-27
0.0676273120339	-1.15921047465e-27
0.0677998732062	-1.17644809871e-27
0.0679724325753	-1.19388496687e-27
0.0681449901483	-1.21152301166e-27
0.0683175459338	-1.22936418798e-27
0.068490099938	-1.24741048167e-27
0.0686626521702	-1.26566390959e-27
0.0688352026361	-1.28412652074e-27
0.069007751345	-1.30280039413e-27
0.0691802983084	-1.32168764656e-27
0.0693528435327	-1.34079042805e-27
0.0695253870238	-1.36011092532e-27
0.0696979287938	-1.37965135829e-27
0.0698704688524	-1.39941398483e-27
0.0700000453122	-1.41440318902e-27
0.0700430072019	-1.41940109575e-27
0.0702155438507	-1.43961501688e-27
0.0703880788138	-1.46005811025e-27
0.0705606121	-1.48073276688e-27
0.0707331437131	-1.50164141198e-27
0.0709056736619	-1.52278649894e-27
0.0710782019511	-1.54417051135e-27
0.0712507285934	-1.56579596397e-27
0.0714232535938	-1.58766539779e-27
0.0715957769643	-1.60978138005e-27
0.0717682987123	-1.63214650634e-27
0.071940818847	-1.65476340023e-27
0.0721133373708	-1.67763470877e-27
0.0722858542964	-1.70076311105e-27
0.07245836963	-1.7241513132e-27
0.0726308833804	-1.74780204964e-27
0.072803395557	-1.77171808966e-27
0.0729759061664	-1.79590223268e-27
0.0731484152122	-1.82035731576e-27
0.0733209227074	-1.84508621396e-27
0.0734934286645	-1.87009184104e-27
0.0736659330927	-1.89537715537e-27
0.0738384360005	-1.92094515811e-27
0.0740109373952	-1.94679890056e-27
0.0741834372848	-1.97294148388e-27
0.0743559356734	-1.99937606032e-27
0.0745284325691	-2.02610583771e-27
0.0747009279739	-2.05313408104e-27
0.0748734218938	-2.08046411348e-27
0.0750000314906	-2.10071836866e-27
0.0750459143368	-2.1080993186e-27
0.0752184053096	-2.1360431401e-27
0.0753908948195	-2.16429908473e-27
0.0755633828715	-2.19287072157e-27
0.0757358694682	-2.22176168194e-27
0.0759083546186	-2.25097566205e-27
0.0760808383249	-2.28051641962e-27
0.0762533205883	-2.31038777828e-27
0.0764258014177	-2.34059362588e-27
0.0765982808198	-2.37113791153e-27
0.0767707587931	-2.40202465327e-27
0.0769432353464	-2.43325793044e-27
0.0771157104866	-2.46484189136e-27
0.0772881842184	-2.49678074936e-27
0.0774606565455	-2.5290787859e-27
0.0776331274741	-2.56174035232e-27
0.0778055969971	-2.59476986787e-27
0.0779780651135	-2.62817182473e-27
0.0781505318271	-2.6619507928e-27
0.0783229971408	-2.69611141666e-27
0.0784954610538	-2.73065841859e-27
0.0786679235563	-2.76559660241e-27
0.0788403846474	-2.80093085353e-27
0.0790128443255	-2.83666614581e-27
0.0791853025927	-2.87280754034e-27
0.0793577594283	-2.90936018372e-27
0.079530214776	-2.946329307e-27
0.0797026685439	-2.98372022968e-27
0.0798751206493	-3.02153836706e-27
0.0800001473878	-3.04922680227e-27
0.0800475710978	-3.05978925991e-27
0.0802200199116	-3.09847855749e-27
0.0803924670629	-3.13761201391e-27
0.0805649125443	-3.1771955108e-27
0.0807373563989	-3.21723507752e-27
0.0809097986485	-3.25773688843e-27
0.0810822392645	-3.29870726887e-27
0.0812546782598	-3.34015274183e-27
0.0814271156846	-3.38208004341e-27
0.0815995515709	-3.42449612972e-27
0.0817719859134	-3.46740818857e-27
0.0819444187283	-3.51082367087e-27
0.0821168501009	-3.55475030444e-27
0.0822892801347	-3.59919608186e-27
0.0824617088968	-3.64416922977e-27
0.082634136453	-3.68967818503e-27
0.0828065628401	-3.73573155084e-27
0.0829789880451	-3.78233802361e-27
0.0831514120882	-3.82950635803e-27
0.0833238350194	-3.87724528399e-27
0.0834962568391	-3.92556342494e-27
0.0836686775333	-3.97446923999e-27
0.0838410971469	-4.02397101691e-27
0.0840135157058	-4.07407684281e-27
0.0841859331871	-4.1247946451e-27
0.0843583496012	-4.1761323042e-27
0.0845307649794	-4.22809780634e-27
0.0847031793338	-4.28069943015e-27
0.0848755926556	-4.33394600011e-27
0.0850000744325	-4.37279635096e-27
0.0850480049482	-4.38784716432e-27
0.085220416237	-4.44241367059e-27
0.0853928265192	-4.49765757901e-27
0.0855652357988	-4.55359242563e-27
0.0857376441006	-4.61023325286e-27
0.085910051432	-4.66759644824e-27
0.0860824577865	-4.72569938882e-27
0.0862548631712	-4.78455986145e-27
0.0864272676057	-4.84419522297e-27
0.0865996710903	-4.90462133499e-27
0.0867720736221	-4.96585133627e-27
0.0869444752151	-5.02789432897e-27
0.0871168758723	-5.09075408259e-27
0.0872892755983	-5.15442793266e-27
0.0874616743992	-5.21890605484e-27
0.0876340722757	-5.28417130227e-27
0.0878064692398	-5.35019982372e-27
0.0879788652985	-5.4169626456e-27
0.0881512604508	-5.484428374e-27
0.0883236547033	-5.55256712846e-27
0.0884960480599	-5.62135570201e-27
0.0886684405237	-5.69078387671e-27
0.0888408320973	-5.76086169234e-27
0.0890132227896	-5.83162732127e-27
0.089185612603	-5.90315508199e-27
0.0893580015373	-5.9755630119e-27
0.0895303895976	-6.0490192665e-27
0.0897027767907	-6.12374658197e-27
0.0898751631184	-6.20002396154e-27
0.090000142662	-6.25648171796e-27
0.0900475485764	-6.27818478005e-27
0.090219933171	-6.35861060279e-27
0.0903923169096	-6.441720074e-27
0.0905646997844	-6.52795253703e-27
0.0907370817947	-6.61774628745e-27
0.0909094629518	-6.71151168067e-27
0.091081843254	-6.80959970095e-27
0.0912542226948	-6.91226705237e-27
0.0914266012785	-7.01963922017e-27
0.0915989790052	-7.13167332191e-27
0.0917713558637	-7.24812298526e-27
0.0919437318484	-7.3685077591e-27
0.0921161069535	-7.49208968767e-27
0.0922884811638	-7.61785982404e-27
0.0924608544641	-7.74453732744e-27
0.0926332268446	-7.87058355263e-27
0.0928055982921	-7.99423314564e-27
0.0929779687853	-8.1135435879e-27
0.0931503382986	-8.22646397163e-27
0.0933227068164	-8.33092288769e-27
0.0934950743205	-8.42493441766e-27
0.0936674407851	-8.50672024296e-27
0.0938398061913	-8.57484490686e-27
0.0940121705237	-8.62836024942e-27
0.0941845337667	-8.66695424564e-27
0.0943568959031	-8.69109868177e-27
