# Model    WH12
# Gamma1   1.3
# Gamma2   2.5
# Gammath  1.35
# alpha0   0.0001
# beta0    -4.35
# 
# time [s] 		 h(t)
0.0	0.0
0.000167445587591	-1.1427225197e-35
0.000335248709988	-4.58065519073e-35
0.000503052040001	-1.03138117307e-34
0.000670855600309	-1.83422019089e-34
0.000838659413646	-2.86658367257e-34
0.00100646350199	-4.12847284115e-34
0.00117426788658	-5.61988904033e-34
0.00134207259275	-7.34083375176e-34
0.00150987764347	-9.2913085796e-34
0.00167768306175	-1.14713152518e-33
0.00184548887069	-1.38808556238e-33
0.00201329509346	-1.65199316703e-33
0.00218110175327	-1.93885455212e-33
0.00234890887342	-2.24866993924e-33
0.00251671647727	-2.5814395676e-33
0.00268452458827	-2.93716368514e-33
0.00285233322988	-3.31584255625e-33
0.00302014242554	-3.71747645416e-33
0.00318795219879	-4.14206566958e-33
0.00335576257323	-4.58961050294e-33
0.00352357357253	-5.06011126826e-33
0.00369138522044	-5.55356829508e-33
0.00385919754082	-6.0699819237e-33
0.00402701055578	-6.60935250714e-33
0.00419482428976	-7.1716804118e-33
0.0043626387683	-7.75696602281e-33
0.00453045401566	-8.36520973478e-33
0.00469827005621	-8.99641195612e-33
0.00486608691444	-9.65057310874e-33
0.00500000537038	-1.01890647867e-32
0.00503390461498	-1.03276936349e-32
0.00520172318261	-1.10277739724e-32
0.00536954264227	-1.17508145962e-32
0.00553736301905	-1.24968159836e-32
0.00570518433823	-1.32657786396e-32
0.00587300662526	-1.40577030498e-32
0.00604082990588	-1.48725897496e-32
0.00620865420622	-1.57104392832e-32
0.00637647955255	-1.65712522051e-32
0.00654430597129	-1.74550290789e-32
0.00671213348893	-1.83617704973e-32
0.00687996213214	-1.92914770538e-32
0.00704779192804	-2.02441493707e-32
0.00721562290175	-2.12197880704e-32
0.00738345508272	-2.22183938233e-32
0.00755128849964	-2.32399672811e-32
0.00771912318073	-2.42845091433e-32
0.00788695915462	-2.53520201006e-32
0.00805479645011	-2.64425008822e-32
0.0082226350962	-2.75559522174e-32
0.00839047512205	-2.86923748647e-32
0.00855831655702	-2.98517695914e-32
0.00872615943084	-3.10341371952e-32
0.00889400377368	-3.22394784736e-32
0.00906184961591	-3.34677942718e-32
0.00922969698808	-3.47190854165e-32
0.00939754592095	-3.59933527735e-32
0.00956539644553	-3.72905972365e-32
0.00973324859338	-3.86108197005e-32
0.00990110239648	-3.99540210885e-32
0.0100001369297	-4.07572885616e-32
0.010068957887	-4.13202023539e-32
0.0102368150975	-4.27093644491e-32
0.0104046740607	-4.41215083666e-32
0.010572534808	-4.55566351063e-32
0.010740397374	-4.70147457003e-32
0.0109082617937	-4.84958411875e-32
0.0110761281018	-4.99999226585e-32
0.0112439963331	-5.15269912008e-32
0.0114118665228	-5.30770479234e-32
0.0115797387066	-5.4650093982e-32
0.0117476129209	-5.62461305354e-32
0.0119154892023	-5.78651587788e-32
0.0120833675879	-5.95071799173e-32
0.0122512481154	-6.1172195196e-32
0.012419130823	-6.28602058788e-32
0.0125870157493	-6.45712132485e-32
0.0127549029334	-6.63052186182e-32
0.012922792415	-6.80622233482e-32
0.0130906842342	-6.98422288005e-32
0.0132585784318	-7.16452363834e-32
0.0134264750491	-7.34712475569e-32
0.0135943741281	-7.53202637778e-32
0.0137622757112	-7.71922865537e-32
0.0139301798415	-7.90873174211e-32
0.0140980865628	-8.10053578879e-32
0.0142659959164	-8.29464095007e-32
0.0144339079505	-8.49104737968e-32
0.0146018227108	-8.68975523317e-32
0.0147697402438	-8.89076466803e-32
0.0149376605966	-9.09407584848e-32
0.0150001276971	-9.17029502896e-32
0.0151055838171	-9.29968894827e-32
0.015273509954	-9.50760415651e-32
0.0154414390567	-9.71782168087e-32
0.0156093711754	-9.9303417446e-32
0.0157773063611	-1.01451645974e-31
0.0159452446657	-1.03622904851e-31
0.0161131861419	-1.05817196595e-31
0.0162811308435	-1.08034523355e-31
0.0164490788249	-1.1027488701e-31
0.0166170301415	-1.12538288737e-31
0.0167849848497	-1.14824728871e-31
0.0169529430069	-1.17134207129e-31
0.0171209046715	-1.19466722361e-31
0.017288869903	-1.21822273507e-31
0.0174568387618	-1.24200860136e-31
0.0176248113096	-1.26602482968e-31
0.0177927876092	-1.29027145411e-31
0.0179607677242	-1.31474854332e-31
0.018128751717	-1.33945620673e-31
0.0182967396567	-1.3643946013e-31
0.0184647316109	-1.38956392236e-31
0.0186327276485	-1.41496439109e-31
0.0188007278397	-1.4405962277e-31
0.0189687322561	-1.46645961699e-31
0.0191367409707	-1.49255465882e-31
0.019304754058	-1.51888132261e-31
0.0194727715941	-1.54543939745e-31
0.0196407936565	-1.57222845288e-31
0.0198088203243	-1.59924782514e-31
0.0199768516785	-1.6264966279e-31
0.0200000403779	-1.63027492064e-31
0.0201448878014	-1.65397380981e-31
0.0203129287776	-1.68167825095e-31
0.0204809746929	-1.70960891304e-31
0.0206490256356	-1.73776503513e-31
0.0208170816954	-1.76614635425e-31
0.0209851429644	-1.79475335256e-31
0.0211532095365	-1.82358747857e-31
0.021321281508	-1.85265132935e-31
0.0214893589771	-1.88194874316e-31
0.0216574420446	-1.91148477365e-31
0.0218255308134	-1.94126549e-31
0.021993625389	-1.97129760552e-31
0.0221617258771	-2.00158788471e-31
0.0223298323898	-2.03214235891e-31
0.0224979450413	-2.06296536627e-31
0.0226660639478	-2.09405846223e-31
0.0228341892284	-2.12541928644e-31
0.0230023210052	-2.15704048764e-31
0.0231704594035	-2.18890882398e-31
0.0233386045518	-2.22100459099e-31
0.023506756582	-2.25330150981e-31
0.0236749156295	-2.28576721797e-31
0.0238430818334	-2.31836448622e-31
0.0240112553367	-2.35105323803e-31
0.0241794362861	-2.38379341235e-31
0.0243476248325	-2.41654864838e-31
0.0245158211312	-2.44929068271e-31
0.0246840253419	-2.48200429431e-31
0.0248522376287	-2.51469253418e-31
0.0250001030323	-2.54342489835e-31
0.025020458161	-2.54738190905e-31
0.0251886871127	-2.58012710735e-31
0.0253569246635	-2.61301482002e-31
0.025525170998	-2.64616616376e-31
0.0256934263071	-2.67973721354e-31
0.0258616907873	-2.7139171958e-31
0.0260299646415	-2.74892391497e-31
0.0261982480791	-2.78499613577e-31
0.0263665413164	-2.82238272752e-31
0.0265348445737	-2.86132857599e-31
0.0267031580851	-2.90205741643e-31
0.0268714820894	-2.94475199647e-31
0.0270398168338	-2.98953214174e-31
0.027208162574	-3.03643153545e-31
0.027376519575	-3.08537422733e-31
0.0275448881112	-3.13615204435e-31
0.0277132684673	-3.1884042135e-31
0.0278816609383	-3.24160061747e-31
0.0280500658309	-3.29503010538e-31
0.028218483463	-3.34779528496e-31
0.0283869141655	-3.39881510669e-31
0.0285553582821	-3.44683639335e-31
0.0287238161707	-3.49045523505e-31
0.0288922882036	-3.52814890765e-31
0.029060774769	-3.55831858328e-31
0.0292292762715	-3.57934278792e-31
0.0293977931334	-3.58964109533e-31
0.0295663257955	-3.58774718471e-31
0.0297348747186	-3.57238994622e-31
0.0299034403846	-3.54258096466e-31
0.0300000362506	-3.51873203665e-31
0.0300720232979	-3.49770636332e-31
0.0302406239869	-3.43762069215e-31
0.030409243006	-3.3627403803e-31
0.0305778809369	-3.27413409115e-31
0.0307465383908	-3.17360731798e-31
0.0309152160105	-3.06377859892e-31
0.0310839144701	-2.94814489787e-31
0.0312526344851	-2.83113389147e-31
0.0314213768087	-2.71814129839e-31
0.031590142236	-2.61555170924e-31
0.031758931608	-2.53074186903e-31
0.0319277458156	-2.47206584328e-31
0.0320965858031	-2.44882200492e-31
0.0322654525735	-2.47120232366e-31
0.0324343471936	-2.5502248943e-31
0.0326032707997	-2.69765117122e-31
0.032772224606	-2.92588974077e-31
0.0329412099075	-3.24788886819e-31
0.0331102280889	-3.67702028914e-31
0.0332792806369	-4.22695698901e-31
0.0334483691491	-4.91154774867e-31
0.0336174953458	-5.74469132884e-31
0.0337866610833	-6.7402130597e-31
0.0339558683695	-7.91174651349e-31
0.0341251193814	-9.27262268426e-31
0.0342944164861	-1.08357688759e-30
0.034463762264	-1.26136191316e-30
0.0346331595367	-1.46180377827e-30
0.0348026113998	-1.68602571515e-30
0.0349721212612	-1.93508303505e-30
0.0350000962182	-1.97863379724e-30
0.0351416928864	-2.2099599349e-30
0.0353113304536	-2.51156786907e-30
0.0354810386182	-2.84074542006e-30
0.0356508225939	-3.19825966097e-30
0.0358206882479	-3.58480890193e-30
0.0359906422229	-4.00102675511e-30
0.036160692088	-4.44748742046e-30
0.0363308465256	-4.92471211697e-30
0.0365011155768	-5.43317658354e-30
0.0366715109515	-5.97331961278e-30
0.0368420464441	-6.54555267876e-30
0.0370127384857	-7.15027075572e-30
0.037183606902	-7.78786463826e-30
0.0373546759657	-8.45873527214e-30
0.0375259759355	-9.16331120926e-30
0.0376975453452	-9.90207090713e-30
0.0378694052952	-1.06754387438e-29
0.0380414891406	-1.14834366468e-29
0.0382137950387	-1.23263639062e-29
0.0383863248807	-1.32045479679e-29
0.0385590754101	-1.41183038189e-29
0.0387320380461	-1.50679307435e-29
0.0389051999856	-1.60537155818e-29
0.0390785462891	-1.70759424427e-29
0.0392520617675	-1.81349030739e-29
0.0394257321134	-1.92309041203e-29
0.0395995454285	-2.03642779316e-29
0.0397734921817	-2.15353842398e-29
0.0399475647528	-2.27446085027e-29
0.0400001584556	-2.31173494854e-29
0.0401217570615	-2.39923601694e-29
0.0402960641136	-2.52790696283e-29
0.0404704816231	-2.66051851968e-29
0.0406450058507	-2.7971171201e-29
0.0408196335898	-2.93775071686e-29
0.0409943611745	-3.08246788189e-29
0.0411691431557	-3.23128196719e-29
0.0413439531407	-3.3842200226e-29
0.0415187917924	-3.54133214112e-29
0.0416936597863	-3.70266930744e-29
0.041868558038	-3.86828356129e-29
0.0420434875177	-4.03822780441e-29
0.0422184487684	-4.21255529139e-29
0.0423934420882	-4.39131974186e-29
0.0425684677516	-4.57457552459e-29
0.0427435260997	-4.7623777456e-29
0.0429186174954	-4.95478218981e-29
0.0430937421848	-5.15184516274e-29
0.0432689003332	-5.35362350195e-29
0.043444092087	-5.56017463928e-29
0.043619317592	-5.77155659981e-29
0.0437945769692	-5.98782797464e-29
0.043969870351	-6.209047948e-29
0.0441451978497	-6.43527625551e-29
0.0443205595619	-6.66657318771e-29
0.0444959555626	-6.90299958216e-29
0.0446713859031	-7.14461683121e-29
0.0448468506372	-7.39148692716e-29
0.0450000594906	-7.61134804337e-29
0.0450223497912	-7.64367244747e-29
0.0451978833481	-7.90123655396e-29
0.0453734512976	-8.16424309803e-29
0.0455490536094	-8.43275661885e-29
0.0457246902678	-8.70684243755e-29
0.0459003612509	-8.98656666699e-29
0.0460760665348	-9.27199625736e-29
0.0462518060715	-9.56319899853e-29
0.0464275798328	-9.86024361427e-29
0.046603387745	-1.01631996655e-28
0.0467792297271	-1.04721376379e-28
0.0469551056925	-1.07871289582e-28
0.0471310155369	-1.11082459276e-28
0.0473069591459	-1.14355617238e-28
0.0474829363541	-1.17691503325e-28
0.0476589470232	-1.21090866243e-28
0.0478349910263	-1.24554463071e-28
0.0480110681928	-1.28083057716e-28
0.0481871783439	-1.31677421669e-28
0.0483633212825	-1.35338333046e-28
0.0485394967888	-1.39066576673e-28
0.0487157046521	-1.42862944659e-28
0.0488919446539	-1.46728236123e-28
0.0490682165388	-1.50663256765e-28
0.0492445200894	-1.54668821117e-28
0.049420855045	-1.58745751178e-28
0.0495972211595	-1.62894878634e-28
0.0497736181638	-1.67117044466e-28
0.049950045754	-1.71413099736e-28
0.0500001567372	-1.72646771382e-28
0.050126503664	-1.75783908499e-28
0.050302991577	-1.80230346131e-28
0.0504795092138	-1.84753302955e-28
0.0506560562438	-1.89353682174e-28
0.0508326323613	-1.94032403227e-28
0.0510092372178	-1.98790400187e-28
0.0511858705085	-2.03628624326e-28
0.0513625318715	-2.08548041981e-28
0.0515392209738	-2.13549636594e-28
0.0517159374406	-2.18634406401e-28
0.0518926809459	-2.23803367058e-28
0.0520694511159	-2.29057547937e-28
0.0522462476148	-2.34397994014e-28
0.0524230700702	-2.39825762638e-28
0.0525999181154	-2.45341924321e-28
0.0527767913674	-2.5094756078e-28
0.0529536895027	-2.56643766335e-28
0.0531306121027	-2.62431642048e-28
0.0533075588379	-2.68312301159e-28
0.0534845293475	-2.74286863757e-28
0.0536615232671	-2.80356457163e-28
0.0538385402207	-2.86522215314e-28
0.0540155798551	-2.92785278709e-28
0.0541926418141	-2.99146793407e-28
0.0543697257325	-3.05607910437e-28
0.0545468312398	-3.1216978484e-28
0.0547239580223	-3.18833578378e-28
0.0549011056949	-3.2560045372e-28
0.0550001402233	-3.29428487946e-28
0.0550782739314	-3.32471579067e-28
0.0552554624074	-3.39448125495e-28
0.0554326707507	-3.46531264465e-28
0.0556098986462	-3.53722171456e-28
0.055787145767	-3.6102202226e-28
0.0559644117939	-3.68431993679e-28
0.0561416964115	-3.75953262034e-28
0.0563189992871	-3.83587002314e-28
0.0564963201211	-3.9133438915e-28
0.0566736586057	-3.99196594944e-28
0.0568510144322	-4.07174789776e-28
0.0570283873052	-4.15270141882e-28
0.0572057769311	-4.23483816965e-28
0.0573831830165	-4.31816978869e-28
0.0575606052891	-4.40270790633e-28
0.0577380434537	-4.48846413316e-28
0.0579154972595	-4.57545010467e-28
0.0580929664139	-4.66367744802e-28
0.0582704506419	-4.75315782953e-28
0.0584479496951	-4.84390297336e-28
0.0586254633063	-4.93592465914e-28
0.0588029912126	-5.02923474752e-28
0.0589805331611	-5.12384520339e-28
0.0591580888985	-5.2197681096e-28
0.0593356581877	-5.31701569119e-28
0.0595132407899	-5.41560031936e-28
0.0596908364658	-5.51553452918e-28
0.0598684449949	-5.61683103221e-28
0.0600000610739	-5.69277806752e-28
0.060046066153	-5.71950272264e-28
0.0602236997331	-5.82356268287e-28
0.0604013454891	-5.92902415782e-28
0.0605790031962	-6.03590058676e-28
0.0607566726741	-6.14420561441e-28
0.060934353717	-6.25395304214e-28
0.0611120461321	-6.3651568447e-28
0.0612897497286	-6.47783115382e-28
0.0614674642911	-6.5919902317e-28
0.0616451896488	-6.70764850632e-28
0.0618229256357	-6.82482054e-28
0.0620006720325	-6.94352098383e-28
0.0621784286475	-7.0637646243e-28
0.0623561953328	-7.18556639263e-28
0.0625339719422	-7.30894134167e-28
0.0627117582846	-7.43390461259e-28
0.0628895541871	-7.5604714854e-28
0.0630673595028	-7.68865739115e-28
0.0632451740619	-7.81847789111e-28
0.0634229977248	-7.94994872651e-28
0.0636008303557	-8.08308581334e-28
0.0637786717733	-8.21790521456e-28
0.0639565218373	-8.35442322594e-28
0.0641343804335	-8.49265637711e-28
0.0643122474039	-8.63262138855e-28
0.064490122603	-8.77433522827e-28
0.0646680059056	-8.91781512269e-28
0.0648458971829	-9.06307855046e-28
0.0650001352714	-9.1904791377e-28
0.0650237963022	-9.21014323728e-28
0.0652017031412	-9.35902717611e-28
0.0653796175725	-9.50974860795e-28
0.0655575394602	-9.66232601484e-28
0.0657354686914	-9.81677813584e-28
0.0659134051658	-9.97312397944e-28
0.066091348742	-1.01313826956e-27
0.0662692993159	-1.02915737385e-27
0.0664472567756	-1.04537167185e-27
0.0666252210028	-1.0617831468e-27
0.0668031918959	-1.07839380155e-27
0.0669811693421	-1.09520565552e-27
0.0671591532256	-1.11222074846e-27
0.0673371434472	-1.12944113961e-27
0.0675151399174	-1.14686890758e-27
0.0676931425228	-1.1645061495e-27
0.0678711511563	-1.18235498379e-27
0.0680491657273	-1.20041755309e-27
0.068227186142	-1.21869602245e-27
0.0684052122947	-1.23719258198e-27
0.0685832440955	-1.25590944907e-27
0.068761281454	-1.27484887398e-27
0.0689393242766	-1.29401313415e-27
0.069117372472	-1.31340454295e-27
0.069295425956	-1.3330254467e-27
0.0694734846362	-1.3528782296e-27
0.0696515484266	-1.37296531266e-27
0.0698296172484	-1.39328915681e-27
0.0700000337355	-1.41296309068e-27
0.0700076910076	-1.41385226085e-27
0.0701857696243	-1.43465716244e-27
0.0703638530231	-1.4557064439e-27
0.0705419411213	-1.47700272067e-27
0.0707200338399	-1.49854865295e-27
0.0708981310938	-1.52034693492e-27
0.0710762328092	-1.54240030266e-27
0.0712543389164	-1.56471152626e-27
0.0714324493402	-1.5872834138e-27
0.0716105640032	-1.61011880829e-27
0.0717886828271	-1.63322058603e-27
0.0719668057458	-1.65659166094e-27
0.0721449326881	-1.68023497926e-27
0.0723230635774	-1.70415352113e-27
0.0725011983458	-1.72835030463e-27
0.0726793369262	-1.75282838184e-27
0.0728574792498	-1.77759084459e-27
0.0730356252515	-1.80264082053e-27
0.0732137748617	-1.82798148221e-27
0.0733919280108	-1.85361604364e-27
0.0735700846302	-1.87954776349e-27
0.0737482446581	-1.90577995097e-27
0.0739264080255	-1.93231596757e-27
0.0741045746745	-1.9591592263e-27
0.0742827445425	-1.98631320023e-27
0.0744609175622	-2.01378141877e-27
0.0746390936712	-2.04156747345e-27
0.0748172728068	-2.06967501891e-27
0.0749954549107	-2.0981077787e-27
0.0750000876844	-2.098851402e-27
0.0751736399187	-2.12686953767e-27
0.0753518277697	-2.15596415431e-27
0.075530018408	-2.18539555336e-27
0.0757082117763	-2.21516773036e-27
0.0758864078158	-2.24528475099e-27
0.0760646064705	-2.2757507526e-27
0.0762428076787	-2.3065699418e-27
0.0764210113777	-2.33774659791e-27
0.0765992175078	-2.36928507132e-27
0.0767774260154	-2.40118978626e-27
0.0769556368444	-2.43346524164e-27
0.0771338499418	-2.4661160103e-27
0.0773120652512	-2.49914674285e-27
0.0774902827048	-2.53256216365e-27
0.0776685022386	-2.56636707958e-27
0.0778467237987	-2.60056638105e-27
0.0780249473279	-2.63516504296e-27
0.078203172768	-2.67016813048e-27
0.0783814000619	-2.70558079706e-27
0.0785596291493	-2.74140829143e-27
0.0787378599564	-2.77765595636e-27
0.0789160924079	-2.81432923477e-27
0.0790943264172	-2.85143366953e-27
0.0792725618893	-2.8889749063e-27
0.0794507987227	-2.92695869871e-27
0.0796290368089	-2.96539091001e-27
0.0798072760259	-3.00427751219e-27
0.0799855162439	-3.04362459478e-27
0.0800001319821	-3.04687167345e-27
0.0801637573275	-3.08343836553e-27
0.0803419991363	-3.1237251623e-27
0.0805202415255	-3.16449145655e-27
0.0806984843463	-3.20574386912e-27
0.0808767274493	-3.24748918349e-27
0.0810549706841	-3.28973436329e-27
0.0812332139035	-3.33248657647e-27
0.0814114569707	-3.37575321386e-27
0.0815896997582	-3.41954191906e-27
0.0817679421483	-3.46386060355e-27
0.0819461840349	-3.50871746201e-27
0.0821244253294	-3.55412098662e-27
0.0823026659673	-3.60007996053e-27
0.0824809059085	-3.64660344006e-27
0.0826591451148	-3.6937007143e-27
0.0828373835388	-3.74138124929e-27
0.0830156211336	-3.78965462274e-27
0.0831938578642	-3.83853044525e-27
0.0833720937083	-3.8880182797e-27
0.0835503286567	-3.93812756044e-27
0.0837285627129	-3.98886753288e-27
0.0839067958919	-4.04024722426e-27
0.0840850282008	-4.09227545543e-27
0.0842632596303	-4.14496091253e-27
0.0844414901601	-4.19831228676e-27
0.0846197197708	-4.25233848572e-27
0.0847979484529	-4.30704890612e-27
0.0849761761994	-4.36245373934e-27
0.0850000586458	-4.36993134344e-27
0.0851544029985	-4.4185642956e-27
0.0853326288366	-4.47539330396e-27
0.0855108537004	-4.53295513118e-27
0.0856890775726	-4.59126587435e-27
0.0858673004292	-4.65034325112e-27
0.0860455222529	-4.71020626676e-27
0.0862237430336	-4.77087458365e-27
0.0864019627513	-4.83236759618e-27
0.0865801813805	-4.89470322946e-27
0.0867583988912	-4.95789651595e-27
0.0869366152434	-5.02195803315e-27
0.0871148303907	-5.08689238159e-27
0.0872930442816	-5.15269686107e-27
0.0874712568612	-5.21936059364e-27
0.0876494680675	-5.28686434142e-27
0.0878276778281	-5.35518127446e-27
0.0880058860542	-5.42427892803e-27
0.0881840926432	-5.49412254887e-27
0.0883622974942	-5.56467993886e-27
0.0885405005024	-5.63592779793e-27
0.0887187015541	-5.70785942965e-27
0.0888969005431	-5.780493529e-27
0.0890750973469	-5.85388357463e-27
0.0892532917459	-5.92812716198e-27
0.0894314834309	-6.00337455019e-27
0.0896096722613	-6.07983555623e-27
0.0897878581151	-6.15778352471e-27
0.0899660409139	-6.23755555303e-27
0.0900000734801	-6.25303149448e-27
0.0901442206369	-6.31954793021e-27
0.0903223971792	-6.4042058698e-27
0.090500570412	-6.49200707921e-27
0.0906787402769	-6.5834388072e-27
0.0908569067013	-6.67896837992e-27
0.0910350695747	-6.77900792438e-27
0.0912132288581	-6.88387444281e-27
0.0913913846912	-6.9937468418e-27
0.0915695371726	-7.108621893e-27
0.091747686333	-7.22827209598e-27
0.0919258322812	-7.35220851489e-27
0.0921039750208	-7.47965161358e-27
0.0922821145779	-7.60951392377e-27
0.0924602510773	-7.74039770238e-27
0.0926383845647	-7.87061045092e-27
0.0928165150679	-7.99820123688e-27
0.0929946426207	-8.12101944844e-27
0.0931727673172	-8.23679695079e-27
0.0933508892526	-8.34325336202e-27
0.0935290084873	-8.43822319994e-27
0.0937071251124	-8.51980227993e-27
0.0938852391683	-8.58650928044e-27
0.0940633506889	-8.63745748129e-27
0.0942414597562	-8.67253030885e-27
0.0944195664119	-8.69255352958e-27
0.0945976706984	-8.69945638836e-27
0.0947757726748	-8.69641352884e-27
0.0949538724057	-8.68795964011e-27
0.0950001779775	-8.68557889912e-27
0.0951319699613	-8.68006919587e-27
0.0953100653771	-8.68019441884e-27
0.0954881586904	-8.69725576001e-27
