# Model    WH40
# Gamma1   1.28
# Gamma2   2.5
# Gammath  1.35
# alpha0   0.0001
# beta0    -4.35
# 
# frequency [Hz] 		 sqrt(S(f))
10.0	3.49198282776e-26
10.0004605322	3.49175663467e-26
10.0009210857	3.49152174272e-26
10.0013816603	3.49127815634e-26
10.0018422562	3.49102588007e-26
10.0023028732	3.49076491855e-26
10.0027635115	3.49049527652e-26
10.003224171	3.49021695879e-26
10.0036848517	3.48992997028e-26
10.0041455537	3.48963431601e-26
10.0046062768	3.48933000109e-26
10.0050670212	3.48901703071e-26
10.0055277867	3.48869541019e-26
10.0059885735	3.4883651449e-26
10.0064493816	3.48802624034e-26
10.0069102108	3.48767870209e-26
10.0073710613	3.48732253581e-26
10.007831933	3.48695774727e-26
10.0082928259	3.48658434233e-26
10.00875374	3.48620232695e-26
10.0092146754	3.48581170716e-26
10.009675632	3.48541248912e-26
10.0101366098	3.48500467903e-26
10.0105976088	3.48458828324e-26
10.0110586291	3.48416330815e-26
10.0115196706	3.48372976028e-26
10.0119807334	3.48328764621e-26
10.0124418174	3.48283697265e-26
10.0129029226	3.48237774636e-26
10.013364049	3.48190997424e-26
10.0138251967	3.48143366323e-26
10.0142863656	3.4809488204e-26
10.0147475558	3.48045545289e-26
10.0152087672	3.47995356794e-26
10.0156699998	3.47944317287e-26
10.0161312537	3.47892427511e-26
10.0165925288	3.47839688215e-26
10.0170538252	3.4778610016e-26
10.0175151428	3.47731664114e-26
10.0179764817	3.47676380855e-26
10.0184378418	3.4762025117e-26
10.0188992231	3.47563275852e-26
10.0193606257	3.47505455708e-26
10.0198220496	3.4744679155e-26
10.0202834947	3.47387284199e-26
10.020744961	3.47326934487e-26
10.0212064486	3.47265743254e-26
10.0216679575	3.47203711347e-26
10.0221294876	3.47140839623e-26
10.022591039	3.47077128948e-26
10.0230526116	3.47012580198e-26
10.0235142054	3.46947194254e-26
10.0239758206	3.46880972009e-26
10.024437457	3.46813914363e-26
10.0248991146	3.46746022225e-26
10.0253607935	3.46677296513e-26
10.0258224937	3.46607738153e-26
10.0262842151	3.4653734808e-26
10.0267459578	3.46466127237e-26
10.0272077218	3.46394076576e-26
10.027669507	3.46321197057e-26
10.0281313135	3.46247489649e-26
10.0285931413	3.46172955329e-26
10.0290549903	3.46097595082e-26
10.0295168606	3.46021409903e-26
10.0299787522	3.45944400793e-26
10.0304406651	3.45866568764e-26
10.0309025992	3.45787914834e-26
10.0313645546	3.4570844003e-26
10.0318265312	3.45628145388e-26
10.0322885292	3.45547031951e-26
10.0327505484	3.45465100772e-26
10.0332125889	3.45382352909e-26
10.0336746507	3.45298789433e-26
10.0341367337	3.45214411418e-26
10.0345988381	3.4512921995e-26
10.0350609637	3.4504321612e-26
10.0355231106	3.4495640103e-26
10.0359852788	3.44868775788e-26
10.0364474682	3.44780341511e-26
10.036909679	3.44691099322e-26
10.037371911	3.44601050355e-26
10.0378341643	3.4451019575e-26
10.038296439	3.44418536656e-26
10.0387587349	3.44326074228e-26
10.039221052	3.44232809631e-26
10.0396833905	3.44138744036e-26
10.0401457503	3.44043878623e-26
10.0406081314	3.43948214579e-26
10.0410705337	3.438517531e-26
10.0415329574	3.43754495389e-26
10.0419954024	3.43656442655e-26
10.0424578686	3.43557596117e-26
10.0429203562	3.43457957001e-26
10.043382865	3.43357526539e-26
10.0438453952	3.43256305974e-26
10.0443079466	3.43154296553e-26
10.0447705194	3.43051499532e-26
10.0452331134	3.42947916175e-26
10.0456957288	3.42843547752e-26
10.0461583654	3.42738395542e-26
10.0466210234	3.4263246083e-26
10.0470837027	3.4252574491e-26
10.0475464033	3.42418249082e-26
10.0480091252	3.42309974653e-26
10.0484718684	3.42200922939e-26
10.0489346329	3.42091095261e-26
10.0493974187	3.41980492948e-26
10.0498602258	3.41869117339e-26
10.0503230543	3.41756969775e-26
10.0507859041	3.41644051609e-26
10.0512487751	3.41530364197e-26
10.0517116675	3.41415908906e-26
10.0521745813	3.41300687106e-26
10.0526375163	3.41184700177e-26
10.0531004726	3.41067949506e-26
10.0535634503	3.40950436484e-26
10.0540264493	3.40832162512e-26
10.0544894696	3.40713128996e-26
10.0549525113	3.4059333735e-26
10.0554155742	3.40472788995e-26
10.0558786585	3.40351485357e-26
10.0563417642	3.40229427871e-26
10.0568048911	3.40106617977e-26
10.0572680394	3.39983057123e-26
10.057731209	3.39858746762e-26
10.0581943999	3.39733688355e-26
10.0586576122	3.3960788337e-26
10.0591208458	3.3948133328e-26
10.0595841007	3.39354039565e-26
10.060047377	3.39226003713e-26
10.0605106746	3.39097227216e-26
10.0609739935	3.38967711574e-26
10.0614373338	3.38837458295e-26
10.0619006954	3.38706468889e-26
10.0623640784	3.38574744876e-26
10.0628274827	3.38442287781e-26
10.0632909083	3.38309099136e-26
10.0637543553	3.38175180478e-26
10.0642178236	3.38040533351e-26
10.0646813133	3.37905159305e-26
10.0651448243	3.37769059897e-26
10.0656083567	3.37632236688e-26
10.0660719104	3.37494691247e-26
10.0665354854	3.37356425149e-26
10.0669990818	3.37217439975e-26
10.0674626996	3.37077737309e-26
10.0679263387	3.36937318746e-26
10.0683899991	3.36796185883e-26
10.0688536809	3.36654340324e-26
10.0693173841	3.3651178368e-26
10.0697811086	3.36368517566e-26
10.0702448545	3.36224543604e-26
10.0707086217	3.36079863421e-26
10.0711724103	3.35934478651e-26
10.0716362202	3.35788390932e-26
10.0721000516	3.35641601908e-26
10.0725639042	3.3549411323e-26
10.0730277782	3.35345926554e-26
10.0734916736	3.3519704354e-26
10.0739555904	3.35047465855e-26
10.0744195285	3.34897195171e-26
10.074883488	3.34746233165e-26
10.0753474689	3.34594581522e-26
10.0758114711	3.34442241928e-26
10.0762754947	3.34289216078e-26
10.0767395396	3.34135505671e-26
10.077203606	3.33981112411e-26
10.0776676937	3.33826038007e-26
10.0781318027	3.33670284175e-26
10.0785959332	3.33513852634e-26
10.079060085	3.33356745108e-26
10.0795242582	3.33198963329e-26
10.0799884528	3.33040509031e-26
10.0804526687	3.32881383954e-26
10.0809169061	3.32721589844e-26
10.0813811648	3.3256112845e-26
10.0818454449	3.32400001528e-26
10.0823097464	3.32238210838e-26
10.0827740692	3.32075758145e-26
10.0832384135	3.31912645217e-26
10.0837027791	3.3174887383e-26
10.0841671661	3.31584445763e-26
10.0846315745	3.31419362798e-26
10.0850960043	3.31253626726e-26
10.0855604554	3.31087239339e-26
10.086024928	3.30920202435e-26
10.086489422	3.30752517816e-26
10.0869539373	3.30584187289e-26
10.087418474	3.30415212665e-26
10.0878830322	3.30245595761e-26
10.0883476117	3.30075338396e-26
10.0888122126	3.29904442396e-26
10.0892768349	3.29732909589e-26
10.0897414786	3.29560741808e-26
10.0902061438	3.29387940892e-26
10.0906708303	3.29214508682e-26
10.0911355382	3.29040447024e-26
10.0916002675	3.28865757769e-26
10.0920650182	3.28690442771e-26
10.0925297903	3.28514503889e-26
10.0929945839	3.28337942985e-26
10.0934593988	3.28160761925e-26
10.0939242351	3.27982962582e-26
10.0943890929	3.27804546828e-26
10.094853972	3.27625516544e-26
10.0953188726	3.27445873611e-26
10.0957837945	3.27265619916e-26
10.0962487379	3.27084757348e-26
10.0967137027	3.26903287802e-26
10.0971786889	3.26721213176e-26
10.0976436965	3.26538535371e-26
10.0981087256	3.26355256293e-26
10.098573776	3.26171377849e-26
10.0990388479	3.25986901952e-26
10.0995039412	3.25801830519e-26
10.0999690559	3.25616165469e-26
10.100434192	3.25429908724e-26
10.1008993496	3.25243062212e-26
10.1013645285	3.25055627863e-26
10.1018297289	3.24867607609e-26
10.1022949507	3.24679003387e-26
10.102760194	3.24489817138e-26
10.1032254586	3.24300050804e-26
10.1036907447	3.24109706333e-26
10.1041560522	3.23918785674e-26
10.1046213812	3.2372729078e-26
10.1050867316	3.23535223607e-26
10.1055521034	3.23342586115e-26
10.1060174966	3.23149380265e-26
10.1064829113	3.22955608024e-26
10.1069483474	3.2276127136e-26
10.107413805	3.22566372243e-26
10.1078792839	3.22370912649e-26
10.1083447844	3.22174894554e-26
10.1088103062	3.21978319939e-26
10.1092758495	3.21781190786e-26
10.1097414142	3.21583509082e-26
10.1102070004	3.21385276814e-26
10.110672608	3.21186495975e-26
10.1111382371	3.20987168557e-26
10.1116038876	3.20787296557e-26
10.1120695595	3.20586881975e-26
10.1125352529	3.20385926812e-26
10.1130009678	3.20184433072e-26
10.1134667041	3.19982402763e-26
10.1139324618	3.19779837893e-26
10.114398241	3.19576740475e-26
10.1148640416	3.19373112522e-26
10.1153298637	3.19168956051e-26
10.1157957072	3.18964273081e-26
10.1162615722	3.18759065633e-26
10.1167274587	3.18553335731e-26
10.1171933666	3.18347085399e-26
10.1176592959	3.18140316667e-26
10.1181252468	3.17933031563e-26
10.118591219	3.17725232121e-26
10.1190572128	3.17516920373e-26
10.119523228	3.17308098358e-26
10.1199892646	3.17098768112e-26
10.1204553227	3.16888931676e-26
10.1209214023	3.16678591093e-26
10.1213875034	3.16467748407e-26
10.1218536259	3.16256405664e-26
10.1223197699	3.16044564911e-26
10.1227859353	3.15832228198e-26
10.1232521222	3.15619397578e-26
10.1237183306	3.15406075103e-26
10.1241845605	3.15192262827e-26
10.1246508118	3.14977962809e-26
10.1251170846	3.14763177106e-26
10.1255833789	3.14547907778e-26
10.1260496946	3.14332156886e-26
10.1265160318	3.14115926494e-26
10.1269823905	3.13899218666e-26
10.1274487707	3.13682035468e-26
10.1279151724	3.13464378967e-26
10.1283815955	3.13246251233e-26
10.1288480401	3.13027654335e-26
10.1293145062	3.12808590346e-26
10.1297809938	3.12589061337e-26
10.1302475029	3.12369069384e-26
10.1307140334	3.12148616561e-26
10.1311805854	3.11927704945e-26
10.1316471589	3.11706336613e-26
10.132113754	3.11484513646e-26
10.1325803704	3.11262238121e-26
10.1330470084	3.11039512122e-26
10.1335136679	3.10816337729e-26
10.1339803489	3.10592717026e-26
10.1344470513	3.10368652097e-26
10.1349137753	3.10144145026e-26
10.1353805207	3.099191979e-26
10.1358472876	3.09693812805e-26
10.1363140761	3.0946799183e-26
10.136780886	3.09241737061e-26
10.1372477174	3.0901505059e-26
10.1377145704	3.08787934504e-26
10.1381814448	3.08560390895e-26
10.1386483407	3.08332421855e-26
10.1391152582	3.08104029475e-26
10.1395821971	3.07875215847e-26
10.1400491575	3.07645983065e-26
10.1405161395	3.07416333222e-26
10.1409831429	3.07186268412e-26
10.1414501679	3.06955790731e-26
10.1419172143	3.06724902273e-26
10.1423842823	3.06493605133e-26
10.1428513718	3.06261901407e-26
10.1433184828	3.06029793192e-26
10.1437856153	3.05797282584e-26
10.1442527693	3.0556437168e-26
10.1447199448	3.05331062577e-26
10.1451871419	3.05097357372e-26
10.1456543605	3.04863258162e-26
10.1461216005	3.04628767046e-26
10.1465888621	3.04393886121e-26
10.1470561453	3.04158617484e-26
10.1475234499	3.03922963234e-26
10.147990776	3.03686925469e-26
10.1484581237	3.03450506286e-26
10.1489254929	3.03213707783e-26
10.1493928837	3.02976532059e-26
10.1498602959	3.0273898121e-26
10.1503277297	3.02501057335e-26
10.150795185	3.02262762531e-26
10.1512626618	3.02024098896e-26
10.1517301602	3.01785068526e-26
10.1521976801	3.01545673518e-26
10.1526652215	3.01305915969e-26
10.1531327845	3.01065797975e-26
10.1536003689	3.00825321631e-26
10.154067975	3.00584489035e-26
10.1545356025	3.0034330228e-26
10.1550032516	3.00101763461e-26
10.1554709222	2.99859874673e-26
10.1559386144	2.99617638009e-26
10.1564063281	2.99375055562e-26
10.1568740633	2.99132129426e-26
10.1573418201	2.98888861693e-26
10.1578095985	2.98645254453e-26
10.1582773983	2.98401309799e-26
10.1587452197	2.98157029819e-26
10.1592130627	2.97912416605e-26
10.1596809272	2.97667472244e-26
10.1601488132	2.97422198824e-26
10.1606167208	2.97176598433e-26
10.16108465	2.96930673158e-26
10.1615526007	2.96684425084e-26
10.1620205729	2.96437856296e-26
10.1624885667	2.96190968877e-26
10.1629565821	2.95943764911e-26
10.163424619	2.9569624648e-26
10.1638926774	2.95448415665e-26
10.1643607574	2.95200274545e-26
10.164828859	2.94951825201e-26
10.1652969821	2.94703069709e-26
10.1657651268	2.94454010147e-26
10.1662332931	2.9420464859e-26
10.1667014809	2.93954987113e-26
10.1671696903	2.9370502779e-26
10.1676379212	2.93454772692e-26
10.1681061737	2.93204223891e-26
10.1685744477	2.92953383456e-26
10.1690427434	2.92702253456e-26
10.1695110606	2.92450835958e-26
10.1699793993	2.92199133028e-26
10.1704477596	2.9194714673e-26
10.1709161415	2.91694879127e-26
10.171384545	2.91442332282e-26
10.17185297	2.91189508253e-26
10.1723214167	2.909364091e-26
10.1727898848	2.90683036881e-26
10.1732583746	2.9042939365e-26
10.1737268859	2.90175481462e-26
10.1741954188	2.8992130237e-26
10.1746639733	2.89666858424e-26
10.1751325494	2.89412151674e-26
10.175601147	2.89157184168e-26
10.1760697663	2.88901957952e-26
10.1765384071	2.8864647507e-26
10.1770070695	2.88390737564e-26
10.1774757534	2.88134747476e-26
10.177944459	2.87878506844e-26
10.1784131861	2.87622017707e-26
10.1788819349	2.87365282099e-26
10.1793507052	2.87108302053e-26
10.1798194971	2.86851079603e-26
10.1802883106	2.86593616777e-26
10.1807571457	2.86335915603e-26
10.1812260024	2.86077978108e-26
10.1816948806	2.85819806315e-26
10.1821637805	2.85561402246e-26
10.1826327019	2.85302767922e-26
10.183101645	2.8504390536e-26
10.1835706097	2.84784816575e-26
10.1840395959	2.84525503583e-26
10.1845086037	2.84265968394e-26
10.1849776332	2.84006213018e-26
10.1854466842	2.83746239462e-26
10.1859157569	2.83486049731e-26
10.1863848511	2.83225645829e-26
10.186853967	2.82965029755e-26
10.1873231044	2.82704203509e-26
10.1877922635	2.82443169086e-26
10.1882614442	2.82181928481e-26
10.1887306464	2.81920483684e-26
10.1891998703	2.81658836686e-26
10.1896691158	2.81396989472e-26
10.1901383829	2.81134944028e-26
10.1906076716	2.80872702335e-26
10.1910769819	2.80610266372e-26
10.1915463139	2.80347638118e-26
10.1920156674	2.80084819546e-26
10.1924850426	2.79821812629e-26
10.1929544394	2.79558619336e-26
10.1934238578	2.79295241635e-26
10.1938932978	2.79031681489e-26
10.1943627595	2.78767940861e-26
10.1948322427	2.7850402171e-26
10.1953017476	2.78239925993e-26
10.1957712741	2.77975655663e-26
10.1962408222	2.77711212673e-26
10.196710392	2.7744659897e-26
10.1971799833	2.771818165e-26
10.1976495963	2.76916867208e-26
10.198119231	2.76651753033e-26
10.1985888872	2.76386475913e-26
10.1990585651	2.76121037783e-26
10.1995282646	2.75855440575e-26
10.1999979858	2.75589686218e-26
10.2004677286	2.75323776638e-26
10.200937493	2.7505771376e-26
10.201407279	2.74791499503e-26
10.2018770867	2.74525135786e-26
10.202346916	2.74258624524e-26
10.202816767	2.73991967627e-26
10.2032866396	2.73725167005e-26
10.2037565338	2.73458224565e-26
10.2042264497	2.73191142208e-26
10.2046963872	2.72923921835e-26
10.2051663464	2.72656565342e-26
10.2056363272	2.72389074623e-26
10.2061063296	2.72121451569e-26
10.2065763537	2.71853698068e-26
10.2070463994	2.71585816004e-26
10.2075164668	2.71317807258e-26
10.2079865558	2.71049673708e-26
10.2084566665	2.7078141723e-26
10.2089267988	2.70513039696e-26
10.2093969528	2.70244542973e-26
10.2098671285	2.69975928927e-26
10.2103373257	2.69707199421e-26
10.2108075447	2.69438356314e-26
10.2112777853	2.6916940146e-26
10.2117480475	2.68900336713e-26
10.2122183314	2.68631163921e-26
10.212688637	2.68361884931e-26
10.2131589642	2.68092501584e-26
10.2136293131	2.67823015719e-26
10.2140996837	2.67553429173e-26
10.2145700759	2.67283743777e-26
10.2150404897	2.67013961361e-26
10.2155109253	2.66744083749e-26
10.2159813825	2.66474112764e-26
10.2164518613	2.66204050225e-26
10.2169223619	2.65933897946e-26
10.2173928841	2.65663657739e-26
10.2178634279	2.65393331412e-26
10.2183339935	2.65122920769e-26
10.2188045807	2.64852427613e-26
10.2192751896	2.6458185374e-26
10.2197458201	2.64311200944e-26
10.2202164724	2.64040471017e-26
10.2206871463	2.63769665743e-26
10.2211578419	2.63498786907e-26
10.2216285591	2.63227836289e-26
10.2220992981	2.62956815664e-26
10.2225700587	2.62685726804e-26
10.223040841	2.62414571479e-26
10.2235116449	2.62143351453e-26
10.2239824706	2.61872068488e-26
10.2244533179	2.61600724341e-26
10.224924187	2.61329320766e-26
10.2253950777	2.61057859513e-26
10.2258659901	2.60786342329e-26
10.2263369242	2.60514770956e-26
10.2268078799	2.60243147133e-26
10.2272788574	2.59971472596e-26
10.2277498566	2.59699749075e-26
10.2282208774	2.59427978299e-26
10.2286919199	2.5915616199e-26
10.2291629842	2.5888430187e-26
10.2296340701	2.58612399653e-26
10.2301051777	2.58340457052e-26
10.230576307	2.58068475776e-26
10.231047458	2.57796457529e-26
10.2315186307	2.57524404011e-26
10.2319898251	2.57252316919e-26
10.2324610412	2.56980197946e-26
10.2329322791	2.5670804878e-26
10.2334035386	2.56435871107e-26
10.2338748198	2.56163666607e-26
10.2343461227	2.55891436958e-26
10.2348174473	2.55619183832e-26
10.2352887936	2.55346908898e-26
10.2357601617	2.55074613822e-26
10.2362315514	2.54802300264e-26
10.2367029629	2.54529969882e-26
10.237174396	2.54257624328e-26
10.2376458509	2.53985265252e-26
10.2381173275	2.53712894297e-26
10.2385888258	2.53440513106e-26
10.2390603458	2.53168123315e-26
10.2395318875	2.52895726556e-26
10.240003451	2.52623324459e-26
10.2404750361	2.52350918648e-26
10.240946643	2.52078510742e-26
10.2414182716	2.5180610236e-26
10.2418899219	2.51533695111e-26
10.242361594	2.51261290606e-26
10.2428332877	2.50988890447e-26
10.2433050032	2.50716496235e-26
10.2437767404	2.50444109565e-26
10.2442484994	2.50171732028e-26
10.24472028	2.49899365212e-26
10.2451920824	2.496270107e-26
10.2456639065	2.49354670071e-26
10.2461357524	2.49082344899e-26
10.2466076199	2.48810036754e-26
10.2470795092	2.48537747204e-26
10.2475514203	2.4826547781e-26
10.248023353	2.47993230129e-26
10.2484953075	2.47721005717e-26
10.2489672838	2.4744880612e-26
10.2494392817	2.47176632886e-26
10.2499113015	2.46904487554e-26
10.2503833429	2.46632371661e-26
10.2508554061	2.46360286739e-26
10.251327491	2.46088234316e-26
10.2517995977	2.45816215916e-26
10.2522717261	2.45544233058e-26
10.2527438763	2.45272287257e-26
10.2532160482	2.45000380023e-26
10.2536882418	2.44728512864e-26
10.2541604572	2.44456687281e-26
10.2546326943	2.44184904772e-26
10.2551049532	2.4391316683e-26
10.2555772338	2.43641474944e-26
10.2560495362	2.433698306e-26
10.2565218604	2.43098235276e-26
10.2569942062	2.4282669045e-26
10.2574665739	2.42555197593e-26
10.2579389633	2.42283758171e-26
10.2584113744	2.42012373648e-26
10.2588838073	2.41741045482e-26
10.259356262	2.41469775128e-26
10.2598287384	2.41198564034e-26
10.2603012366	2.40927413647e-26
10.2607737565	2.40656325406e-26
10.2612462982	2.40385300748e-26
10.2617188617	2.40114341106e-26
10.2621914469	2.39843447907e-26
10.2626640539	2.39572622573e-26
10.2631366827	2.39301866524e-26
10.2636093332	2.39031181174e-26
10.2640820055	2.38760567932e-26
10.2645546995	2.38490028205e-26
10.2650274153	2.38219563392e-26
10.2655001529	2.37949174891e-26
10.2659729123	2.37678864093e-26
10.2664456934	2.37408632386e-26
10.2669184964	2.37138481153e-26
10.267391321	2.36868411773e-26
10.2678641675	2.36598425619e-26
10.2683370357	2.36328524062e-26
10.2688099257	2.36058708466e-26
10.2692828375	2.35788980192e-26
10.2697557711	2.35519340597e-26
10.2702287265	2.35249791032e-26
10.2707017036	2.34980332844e-26
10.2711747025	2.34710967376e-26
10.2716477232	2.34441695966e-26
10.2721207657	2.34172519948e-26
10.27259383	2.33903440652e-26
10.273066916	2.33634459401e-26
10.2735400238	2.33365577516e-26
10.2740131535	2.33096796313e-26
10.2744863049	2.32828117103e-26
10.2749594781	2.32559541192e-26
10.2754326731	2.32291069883e-26
10.2759058899	2.32022704473e-26
10.2763791285	2.31754446256e-26
10.2768523888	2.31486296519e-26
10.277325671	2.31218256548e-26
10.277798975	2.3095032762e-26
10.2782723008	2.30682511013e-26
10.2787456483	2.30414807995e-26
10.2792190177	2.30147219833e-26
10.2796924088	2.29879747788e-26
10.2801658218	2.29612393118e-26
10.2806392566	2.29345157073e-26
10.2811127131	2.29078040903e-26
10.2815861915	2.2881104585e-26
10.2820596917	2.28544173154e-26
10.2825332137	2.28277424047e-26
10.2830067575	2.28010799761e-26
10.2834803231	2.2774430152e-26
10.2839539105	2.27477930544e-26
10.2844275197	2.27211688049e-26
10.2849011507	2.26945575248e-26
10.2853748036	2.26679593347e-26
10.2858484782	2.26413743548e-26
10.2863221747	2.2614802705e-26
10.286795893	2.25882445045e-26
10.2872696331	2.25616998722e-26
10.287743395	2.25351689266e-26
10.2882171788	2.25086517856e-26
10.2886909843	2.24821485668e-26
10.2891648117	2.24556593871e-26
10.2896386609	2.24291843633e-26
10.2901125319	2.24027236114e-26
10.2905864248	2.23762772472e-26
10.2910603394	2.23498453859e-26
10.2915342759	2.23234281423e-26
