# Model    WH40
# Gamma1   1.3
# Gamma2   2.5
# Gammath  1.35
# alpha0   0.0001
# beta0    0.0
# 
# time [s] 		 h(t)
0.0	0.0
0.000167203227042	-1.13909765192e-35
0.000334761393889	-4.56606880749e-35
0.000502319641873	-1.02809219246e-34
0.00066987797398	-1.82836604785e-34
0.000837436393203	-2.85742881401e-34
0.00100499490254	-4.1152808702e-34
0.00117255350498	-5.60192261595e-34
0.00134011219567	-7.31735443533e-34
0.00150767093425	-9.26157657038e-34
0.00167522977496	-1.14345896334e-33
0.00184278872083	-1.38363940899e-33
0.00201034777487	-1.64669904051e-33
0.00217790694012	-1.93263790963e-33
0.0023454662196	-2.24145606769e-33
0.00251302561635	-2.57315356539e-33
0.00268058511384	-2.92773044535e-33
0.00284814469519	-3.30518674465e-33
0.00301570440295	-3.70552254878e-33
0.00318326424018	-4.12873791812e-33
0.00335082420994	-4.5748329118e-33
0.00351838431529	-5.04380759604e-33
0.00368594455931	-5.5356620331e-33
0.00385350494508	-6.05039629006e-33
0.0040210654756	-6.58801043577e-33
0.00418862610353	-7.14850448212e-33
0.00435618687402	-7.73187854376e-33
0.00452374779863	-8.33813270231e-33
0.00469130888046	-8.96726703364e-33
0.00485887012261	-9.61928161458e-33
0.00500012437658	-1.01867038985e-32
0.0050264315282	-1.02941765219e-32
0.00519399310036	-1.0991951835e-32
0.00536155484222	-1.17126076445e-32
0.0055291167568	-1.24561440268e-32
0.00569667880651	-1.32225610017e-32
0.0058642410173	-1.40118586861e-32
0.00603180341036	-1.48240372067e-32
0.00619936598885	-1.56590966408e-32
0.00636692875591	-1.65170370951e-32
0.00653449171471	-1.73978586479e-32
0.00670205486841	-1.83015614063e-32
0.00686961822019	-1.92281454671e-32
0.00703718177319	-2.01776109277e-32
0.00720474553043	-2.11499578854e-32
0.00737230944646	-2.21451863492e-32
0.00753987356344	-2.31632964952e-32
0.00770743789444	-2.42042884491e-32
0.00787500244268	-2.5268162318e-32
0.00804256721137	-2.63549182189e-32
0.00821013220375	-2.74645562579e-32
0.00837769742305	-2.85970765523e-32
0.0085452628725	-2.97524792094e-32
0.00871282855535	-3.09307643547e-32
0.00888039447471	-3.21319321057e-32
0.00904796061841	-3.33559825397e-32
0.00921552696224	-3.46029157153e-32
0.00938309355247	-3.58727318551e-32
0.00955066039247	-3.71654310968e-32
0.00971822748554	-3.84810135558e-32
0.00988579483497	-3.98194793693e-32
0.010000075916	-4.07454381455e-32
0.0100533624441	-4.11808286725e-32
0.0102209303162	-4.25650615923e-32
0.0103884984547	-4.39721782741e-32
0.0105560668629	-4.54021788449e-32
0.0107236355439	-4.68550634404e-32
0.0108912045011	-4.83308322165e-32
0.0110587736815	-4.98294851336e-32
0.0112263431433	-5.13510224941e-32
0.0113939128915	-5.28954444714e-32
0.0115614829298	-5.44627512128e-32
0.0117290532614	-5.6052942883e-32
0.0118966238898	-5.76660196374e-32
0.0120641948185	-5.93019816224e-32
0.0122317660509	-6.09608289846e-32
0.0123993375905	-6.26425618307e-32
0.0125669094406	-6.43471802979e-32
0.0127344816047	-6.60746844828e-32
0.0129020540862	-6.78250745391e-32
0.0130696268341	-6.95983504755e-32
0.0132371999031	-7.13945127546e-32
0.0134047733004	-7.32135617748e-32
0.0135723470294	-7.50554980092e-32
0.0137399210939	-7.69203219067e-32
0.0139074954973	-7.88080338334e-32
0.0140750702435	-8.0718633885e-32
0.014242645336	-8.26521217742e-32
0.0144102207785	-8.460849669e-32
0.0145777965746	-8.65877573803e-32
0.014745372728	-8.85899022645e-32
0.0149129492421	-9.06149299398e-32
0.0150000891733	-9.16769873305e-32
0.015080526111	-9.26628396738e-32
0.0152481033002	-9.47336321186e-32
0.0154156808613	-9.6827310533e-32
0.0155832587984	-9.89438806649e-32
0.015750837115	-1.01083350881e-31
0.0159184158151	-1.03245731443e-31
0.0160859949024	-1.05431032705e-31
0.0162535743807	-1.07639262179e-31
0.0164211542537	-1.09870421301e-31
0.0165887345254	-1.12124501386e-31
0.0167563151996	-1.14401480443e-31
0.0169238962801	-1.16701321614e-31
0.0170914777708	-1.19023974535e-31
0.0172590596755	-1.21369379674e-31
0.017426641961	-1.2373747792e-31
0.017594224648	-1.26128224395e-31
0.017761807761	-1.28541605926e-31
0.017929391304	-1.30977659271e-31
0.0180969752811	-1.33436488051e-31
0.0182645596963	-1.35918274316e-31
0.0184321445535	-1.38423279128e-31
0.0185997298568	-1.40951828079e-31
0.0187673156103	-1.43504278919e-31
0.0189349018181	-1.46080968162e-31
0.0191024884842	-1.48682139484e-31
0.0192700756128	-1.51307857275e-31
0.019437663208	-1.53957915358e-31
0.019605251274	-1.56631754138e-31
0.0197728397944	-1.59328400769e-31
0.0199404287574	-1.62046453646e-31
0.0200000905446	-1.63018918549e-31
0.0201080182038	-1.64784127819e-31
0.0202756081383	-1.67539376816e-31
0.0204431985652	-1.70310101866e-31
0.0206107894888	-1.73094448911e-31
0.0207783809134	-1.75891183096e-31
0.0209459728433	-1.78700114629e-31
0.0211135652831	-1.81522538609e-31
0.021281158237	-1.84361633623e-31
0.0214487517094	-1.87222755085e-31
0.0216163457048	-1.90113551312e-31
0.0217839402276	-1.93043831092e-31
0.021951535282	-1.96025117641e-31
0.0221191308726	-1.99069843512e-31
0.0222867269865	-2.02190166818e-31
0.0224543236061	-2.05396423828e-31
0.0226219207757	-2.0869528148e-31
0.0227895185	-2.12087692408e-31
0.0229571167839	-2.15566815002e-31
0.0231247156319	-2.19116099183e-31
0.0232923150488	-2.22707775908e-31
0.0234599150392	-2.26302016331e-31
0.023627515608	-2.2984702315e-31
0.0237951167599	-2.3328030497e-31
0.0239627184995	-2.36531334753e-31
0.0241303208319	-2.39525723755e-31
0.0242979237617	-2.42190944873e-31
0.0244655272935	-2.44463517026e-31
0.0246331314323	-2.4629742525e-31
0.0248007361829	-2.47673402304e-31
0.024968341523	-2.48608547102e-31
0.0250000189964	-2.48740051773e-31
0.025135947455	-2.49165620066e-31
0.0253035540136	-2.49461235441e-31
0.0254711612039	-2.49672090192e-31
0.0256387690313	-2.50038330418e-31
0.0258063775006	-2.50863171345e-31
0.0259739866172	-2.52507963465e-31
0.0261415963861	-2.55382039482e-31
0.0263092068126	-2.59926878079e-31
0.0264768179018	-2.6659438961e-31
0.026644429659	-2.75819441983e-31
0.0268120420895	-2.87987104488e-31
0.0269796551985	-3.03395465538e-31
0.0271472689911	-3.22215268204e-31
0.0273148834728	-3.44447977636e-31
0.0274824986487	-3.69884230994e-31
0.0276501145244	-3.98064893498e-31
0.0278177310558	-4.2824714653e-31
0.0279853482906	-4.59378153466e-31
0.0281529662419	-4.90078802872e-31
0.0283205849155	-5.18639966398e-31
0.0284882043169	-5.430334344e-31
0.028655824452	-5.6093934489e-31
0.0288234453264	-5.69791459558e-31
0.0289910669459	-5.66841078776e-31
0.0291586893163	-5.49239753604e-31
0.0293263124434	-5.1414026337e-31
0.029493936333	-4.58814616476e-31
0.0296615609912	-3.8078712011e-31
0.0298291864238	-2.77979890565e-31
0.0299968126368	-1.48867561324e-31
0.0300001651691	-1.46010057384e-31
0.0301644396361	7.36257717654e-33
0.0303320674278	1.90649181341e-31
0.0304996960181	3.99898653461e-31
0.0306673253858	6.32834700003e-31
0.030834955535	8.85860257066e-31
0.0310025865012	1.15393608398e-30
0.031170218291	1.43048003191e-30
0.0313378509107	1.7072906107e-30
0.0315054843666	1.97449772637e-30
0.0316731186654	2.22054281724e-30
0.0318407538134	2.43218979403e-30
0.0320083898173	2.59456737488e-30
0.0321760266835	2.69124250206e-30
0.0323436644188	2.70432367962e-30
0.0325113030298	2.61459226623e-30
0.0326789425231	2.40165897068e-30
0.0328465829057	2.04414216182e-30
0.033014224184	1.51986402929e-30
0.033181866365	8.06060225099e-31
0.0333495094555	-1.20401694146e-31
0.0335171534625	-1.28279981729e-30
0.0336847983765	-2.70433619712e-30
0.0338524441813	-4.40792071769e-30
0.0340200909239	-6.41596504389e-30
0.0341877386117	-8.75018990496e-30
0.034355387252	-1.14314502407e-29
0.0345230368521	-1.44795805661e-29
0.0346906874194	-1.79132630886e-29
0.0348583389614	-2.17499201286e-29
0.0350000052798	-2.53179459286e-29
0.0350259914857	-2.60056319361e-29
0.0351936449998	-3.06950802297e-29
0.0353612995116	-3.58315170729e-29
0.0355289550286	-4.1426758252e-29
0.0356966115588	-4.74911997247e-29
0.0358642691099	-5.40338552144e-29
0.0360319276899	-6.10624126841e-29
0.0361995873065	-6.85833071282e-29
0.0363672479678	-7.66018070098e-29
0.0365349096817	-8.51221113148e-29
0.0367025724566	-9.41474544683e-29
0.0368702362825	-1.03680215835e-28
0.0370379011475	-1.13722032321e-28
0.0372055670983	-1.24273911317e-28
0.0373732341435	-1.35336338337e-28
0.0375409022915	-1.46909382271e-28
0.0377085715512	-1.58992794636e-28
0.037876241931	-1.71586099858e-28
0.0380439134397	-1.84688678398e-28
0.0382115860861	-1.98299838917e-28
0.0383792598789	-2.1241888223e-28
0.0385469348272	-2.2704515412e-28
0.0387146109399	-2.42178088862e-28
0.038882288226	-2.57817243567e-28
0.0390499666948	-2.73962322797e-28
0.0392176463554	-2.90613195824e-28
0.0393853272171	-3.07769906209e-28
0.0395530092892	-3.25432674512e-28
0.0397206925813	-3.43601896082e-28
0.0398883771031	-3.62278133911e-28
0.0400000556815	-3.74998138478e-28
0.0400560628641	-3.81462107647e-28
0.0402237498431	-4.01154679088e-28
0.0403914380559	-4.21356839485e-28
0.0405591275376	-4.42069692182e-28
0.0407268182983	-4.63294433704e-28
0.0408945103484	-4.85032338045e-28
0.041062203698	-5.07284740437e-28
0.0412298983574	-5.30053021909e-28
0.0413975943372	-5.53338595343e-28
0.0415652916478	-5.77142893232e-28
0.0417329902999	-6.01467356713e-28
0.0419006903043	-6.26313426355e-28
0.0420683916719	-6.51682535179e-28
0.0422360944136	-6.77576102728e-28
0.0424037985404	-7.03995530752e-28
0.0425715040636	-7.30942200483e-28
0.0427392109945	-7.58417471239e-28
0.0429069193441	-7.86422679879e-28
0.0430746291241	-8.14959141558e-28
0.0432423403461	-8.44028150347e-28
0.0434100530217	-8.73630981556e-28
0.0435777671628	-9.03768893958e-28
0.0437454827263	-9.34443128131e-28
0.0439131997786	-9.65654920245e-28
0.0440809183329	-9.9740549395e-28
0.0442486384016	-1.02969606529e-27
0.0444163599973	-1.06252784718e-27
0.0445840831326	-1.09590205104e-27
0.0447518078203	-1.12981988524e-27
0.0449195340733	-1.16428256399e-27
0.0450000432345	-1.18101853374e-27
0.0450872619046	-1.19929129935e-27
0.0452549913274	-1.23484731123e-27
0.0454227223549	-1.27095182434e-27
0.0455904550007	-1.30760606527e-27
0.0457581892783	-1.34481127221e-27
0.0459259252015	-1.38256868353e-27
0.0460936627841	-1.42087955002e-27
0.0462614020404	-1.45974512453e-27
0.0464291429842	-1.49916666765e-27
0.0465968856299	-1.5391454478e-27
0.046764629992	-1.57968273634e-27
0.0469323760851	-1.62077981235e-27
0.0471001239242	-1.66243795982e-27
0.0472678734895	-1.70465846572e-27
0.0474356248097	-1.74744262477e-27
0.0476033779214	-1.79079173652e-27
0.0477711328403	-1.83470710549e-27
0.0479388895823	-1.87919003806e-27
0.0481066481631	-1.92424184453e-27
0.048274408599	-1.9698638421e-27
0.0484421709061	-2.01605734687e-27
0.0486099351009	-2.06282368381e-27
0.0487777012001	-2.11016417778e-27
0.0489454692206	-2.15808015949e-27
0.0491132391795	-2.20657296262e-27
0.049281011094	-2.25564392666e-27
0.0494487849817	-2.30529439305e-27
0.0496165608602	-2.35552570996e-27
0.0497843387473	-2.40633922947e-27
0.0499521186612	-2.45773630755e-27
0.0500001040918	-2.47254337739e-27
0.05011990062	-2.50971830609e-27
0.0502876846424	-2.56228659069e-27
0.0504554707473	-2.61544253482e-27
0.0506232589536	-2.66918751488e-27
0.0507910492806	-2.72352291205e-27
0.050958841722	-2.77845011246e-27
0.0511266362933	-2.83397050705e-27
0.0512944330447	-2.89008549747e-27
0.0514622319965	-2.94679648825e-27
0.0516300331695	-3.00410488883e-27
0.0517978365845	-3.06201211341e-27
0.0519656422627	-3.12051958309e-27
0.0521334502253	-3.17962872475e-27
0.0523012604939	-3.23934097205e-27
0.0524690730906	-3.2996577646e-27
0.0526368880376	-3.36058054666e-27
0.0528047053576	-3.42211077333e-27
0.0529725250734	-3.48424990257e-27
0.0531403472082	-3.54699940211e-27
0.0533081717853	-3.61036074442e-27
0.0534759988285	-3.6743354098e-27
0.0536438283621	-3.73892488744e-27
0.0538116604105	-3.80413067023e-27
0.0539794949984	-3.8699542599e-27
0.0541473321511	-3.93639716487e-27
0.0543151718938	-4.00346090057e-27
0.0544830142525	-4.07114699007e-27
0.0546508592534	-4.13945696036e-27
0.0548187068948	-4.20839234616e-27
0.0549865572051	-4.27795469004e-27
0.0550001531991	-4.28361673579e-27
0.0551544102389	-4.34814554804e-27
0.055322266024	-4.41896647922e-27
0.0554901245887	-4.49041905145e-27
0.0556579859618	-4.56250483918e-27
0.0558258501724	-4.63522542772e-27
0.0559937172502	-4.708582411e-27
0.0561615872252	-4.78257739083e-27
0.0563294601276	-4.85721197869e-27
0.0564973359884	-4.93248779669e-27
0.0566652148389	-5.00840647386e-27
0.0568330967112	-5.08496965076e-27
0.0570009816378	-5.16217897496e-27
0.0571688696515	-5.24003610549e-27
0.0573367607855	-5.31854270732e-27
0.0575046550738	-5.39770045704e-27
0.057672552551	-5.47751104007e-27
0.0578404532522	-5.55797614855e-27
0.0580083572128	-5.63909748635e-27
0.0581762644691	-5.72087676501e-27
0.0583441750576	-5.80331570588e-27
0.0585120890159	-5.88641604285e-27
0.0586800063822	-5.97017951675e-27
0.0588479271524	-6.05460787587e-27
0.0590158513959	-6.13970288823e-27
0.0591837791654	-6.22546633533e-27
0.0593517105015	-6.31190000635e-27
0.0595196454462	-6.39900570514e-27
0.0596875840415	-6.48678524631e-27
0.0598555263304	-6.5752404597e-27
0.0600001276333	-6.65194312769e-27
0.0600234723562	-6.66437318821e-27
0.0601914221635	-6.75418528699e-27
0.0603593757977	-6.84467862612e-27
0.0605273333049	-6.93585508702e-27
0.060695294732	-7.02771656605e-27
0.0608632601264	-7.12026497001e-27
0.0610312295368	-7.21350221749e-27
0.0611992030132	-7.30743023979e-27
0.061367180606	-7.40205097882e-27
0.0615351623664	-7.49736638725e-27
0.0617031483467	-7.59337842657e-27
0.0618711386005	-7.69008906885e-27
0.0620391331824	-7.78750029695e-27
0.0622071321477	-7.88561410246e-27
0.0623751355529	-7.98443248571e-27
0.0625431434556	-8.0839574596e-27
0.0627111559151	-8.18419104776e-27
0.0628791729778	-8.28513528143e-27
0.0630471946771	-8.38679220742e-27
0.0632152211168	-8.48916390144e-27
0.0633832523612	-8.59225245002e-27
0.0635512884758	-8.69605996555e-27
0.0637193295271	-8.80058858664e-27
0.0638873755829	-8.90584048372e-27
0.0640554267128	-9.01181786308e-27
0.0642234829879	-9.11852297368e-27
0.0643915444809	-9.2259581088e-27
0.0645596112656	-9.33412560957e-27
0.0647276834175	-9.44302786916e-27
0.0648957610146	-9.55266733364e-27
0.0650001399778	-9.62112558675e-27
0.065063844136	-9.6630464992e-27
0.0652319328627	-9.77416791548e-27
0.0654000272772	-9.88603415511e-27
0.0655681274646	-9.99864786064e-27
0.065736233512	-1.01120116671e-26
0.065904345508	-1.02261282376e-26
0.0660724635432	-1.03410002167e-26
0.0662405877108	-1.04566302218e-26
0.0664087181067	-1.05730208313e-26
0.0665768548282	-1.06901745471e-26
0.0667449979753	-1.0808093784e-26
0.0669131476509	-1.09267808327e-26
0.0670813039608	-1.1046237857e-26
0.0672494669599	-1.11664668553e-26
0.0674176368089	-1.12874696926e-26
0.0675858136245	-1.14092480476e-26
0.0677539975237	-1.15318034338e-26
0.0679221886261	-1.16551372094e-26
0.0680903870545	-1.17792505849e-26
0.0682585929357	-1.1904144663e-26
0.0684268063999	-1.20298204768e-26
0.06859502758	-1.21562790277e-26
0.0687632566134	-1.22835213432e-26
0.0689314936416	-1.24115485848e-26
0.06909973881	-1.25403620455e-26
0.0692679922676	-1.26699633183e-26
0.0694362541684	-1.28003543299e-26
0.0696045246713	-1.29315374712e-26
0.0697728039396	-1.30635156434e-26
0.0699410921409	-1.31962924251e-26
0.0700001634497	-1.3243087185e-26
0.0701093894492	-1.33298720804e-26
0.0702776960437	-1.34642597354e-26
0.0704460121086	-1.35994613778e-26
0.070614337834	-1.37354839832e-26
0.0707826734171	-1.38723355672e-26
0.0709510190612	-1.40100252109e-26
0.0711193749756	-1.41485631019e-26
0.0712877413777	-1.42879605967e-26
0.0714561184925	-1.44282301468e-26
0.0716245065023	-1.45693853535e-26
0.0717929056914	-1.47114409282e-26
0.0719613163151	-1.48544126129e-26
0.0721297386318	-1.49983171949e-26
0.0722981729084	-1.51431723563e-26
0.0724666194229	-1.52889966687e-26
0.0726350784642	-1.54358094382e-26
0.0728035503307	-1.55836306628e-26
0.072972035333	-1.57324809294e-26
0.0731405337953	-1.5882381268e-26
0.0733090460536	-1.60333531099e-26
0.0734775724569	-1.6185418115e-26
0.0736461133706	-1.63385981524e-26
0.0738146691749	-1.64929151621e-26
0.0739832402651	-1.66483910872e-26
0.074151827055	-1.68050477885e-26
0.0743204299777	-1.69629070112e-26
0.0744890494834	-1.71219903082e-26
0.0746576860441	-1.7282319021e-26
0.0748263401557	-1.74439142383e-26
0.0749950123352	-1.76067967885e-26
0.0750000727853	-1.76117033699e-26
0.075163703125	-1.77709872457e-26
0.0753324130968	-1.79365059222e-26
0.075501142849	-1.81033729061e-26
0.0756698930105	-1.82716080693e-26
0.0758386642458	-1.84412311271e-26
0.0760074572473	-1.86122616295e-26
0.0761762727084	-1.87847190641e-26
0.0763451114581	-1.89586228697e-26
0.0765139743197	-1.9133992502e-26
0.076682862163	-1.93108474533e-26
0.0768517759138	-1.94892073411e-26
0.077020716553	-1.96690918974e-26
0.0771896851211	-1.98505210669e-26
0.0773586827306	-2.00335150254e-26
0.0775277105644	-2.021809424e-26
0.0776967698847	-2.04042794483e-26
0.0778658620465	-2.05920917849e-26
0.0780349884981	-2.07815527346e-26
0.0782041507954	-2.09726842083e-26
0.0783733506155	-2.11655085839e-26
0.0785425897635	-2.13600487138e-26
0.0787118701923	-2.15563279662e-26
0.0788811940187	-2.17543702919e-26
0.0790505635391	-2.19542002243e-26
0.0792199812591	-2.215584294e-26
0.0793894499141	-2.2359324323e-26
0.0795589725	-2.2564670949e-26
0.0797285523169	-2.27719102114e-26
0.0798981930025	-2.29810703296e-26
0.0800000082895	-2.31075004807e-26
0.0800678985884	-2.31921804194e-26
0.0802376735666	-2.34052705695e-26
0.0804075229522	-2.36203719289e-26
0.0805774523861	-2.38375167776e-26
0.0807474682068	-2.40567386904e-26
0.080917577676	-2.42780726931e-26
0.0810877891132	-2.45015554849e-26
0.0812581120855	-2.47272257136e-26
0.0814285577232	-2.49551243606e-26
0.0815991391039	-2.51852953262e-26
0.0817698717395	-2.54177861389e-26
0.081940774288	-2.56526490414e-26
0.0821118694822	-2.58899424582e-26
0.0822831855154	-2.61297332208e-26
0.0824547580381	-2.63720997626e-26
0.0826266201154	-2.66171182986e-26
0.0827987100879	-2.68647296126e-26
0.0829710156297	-2.71149429833e-26
0.0831435390879	-2.73677886432e-26
0.0833162779112	-2.76232898472e-26
0.0834892241753	-2.78814621414e-26
0.083662365301	-2.81423143425e-26
0.0838356860189	-2.84058516752e-26
0.0840091705496	-2.86720792903e-26
0.0841828037752	-2.89410044938e-26
0.0843565725004	-2.92126392987e-26
0.0845304659411	-2.94870017688e-26
0.0847044751406	-2.97641157443e-26
0.0848785927321	-3.00440110903e-26
0.0850000135176	-3.02407619153e-26
0.0850528126308	-3.03267237391e-26
0.0852271297954	-3.06122957239e-26
0.0854015400311	-3.09007753047e-26
0.08557603976	-3.11922169053e-26
0.0857506070968	-3.14866490884e-26
0.0859251850676	-3.17840444134e-26
0.0860997704176	-3.20844699094e-26
0.0862743636649	-3.23880041931e-26
0.0864489653129	-3.26947309814e-26
0.0866235761574	-3.30047395244e-26
0.0867981973375	-3.33181245782e-26
0.0869728299355	-3.36349856509e-26
0.0871474747463	-3.39554267458e-26
0.0873221324172	-3.4279556762e-26
0.0874968034857	-3.4607490136e-26
0.0876714884317	-3.49393476027e-26
0.0878461877201	-3.52752573298e-26
0.0880209017678	-3.56153561258e-26
0.0881956309429	-3.59597909662e-26
0.0883703755577	-3.63087206608e-26
0.0885451358899	-3.66623176924e-26
0.0887199122034	-3.70207699771e-26
0.088894704743	-3.73842824244e-26
0.0890695137428	-3.77530780406e-26
0.0892443394198	-3.81273984751e-26
0.0894191819791	-3.8507503758e-26
0.0895940416247	-3.88936710059e-26
0.0897689185513	-3.92861918605e-26
0.0899438129423	-3.96853686074e-26
0.0900001326829	-3.98153708194e-26
0.0901187249778	-4.00915088899e-26
0.0902936548354	-4.05049189347e-26
0.0904686026323	-4.09258953956e-26
0.0906435685757	-4.13547163236e-26
0.0908185528192	-4.17916310669e-26
0.0909935555086	-4.22368501393e-26
0.0911685767864	-4.26905354025e-26
0.0913436167977	-4.31527913276e-26
0.0915186756936	-4.36236583208e-26
0.0916937536221	-4.41031087993e-26
0.0918688507236	-4.45910472296e-26
0.092043967134	-4.50873149772e-26
0.0922191029817	-4.55917008878e-26
0.0923942583914	-4.61039583895e-26
0.0925694334843	-4.66238297061e-26
0.0927446283816	-4.71510775792e-26
0.0929198432008	-4.76855245183e-26
0.0930950780583	-4.82270993977e-26
